EpochTimestamp,EmotiBitTimestamp,PacketNumber,DataLength,TypeTag,ProtocolVersion,DataReliability,PG
1631709007.819300,143418.000,23471,1,PG,1,100,9613
1631709007.943542,143542.000,23485,2,PG,1,100,9530
1631709008.067785,143666.000,23485,2,PG,1,100,9528
1631709008.100349,143698.500,23504,2,PG,1,100,9526
1631709008.132912,143731.000,23504,2,PG,1,100,9525
1631709008.176665,143774.667,23523,3,PG,1,100,9525
1631709008.220417,143818.333,23523,3,PG,1,100,9532
1631709008.264169,143862.000,23523,3,PG,1,100,9521
1631709008.301575,143899.333,23541,3,PG,1,100,9517
1631709008.338982,143936.667,23541,3,PG,1,100,9521
1631709008.376388,143974.000,23541,3,PG,1,100,9520
1631709008.417469,144015.000,23558,2,PG,1,100,9521
1631709008.458549,144056.000,23558,2,PG,1,100,9511
1631709008.496623,144094.000,23576,3,PG,1,100,9487
1631709008.534698,144132.000,23576,3,PG,1,100,9472
1631709008.572772,144170.000,23576,3,PG,1,100,9449
1631709008.613852,144211.000,23595,2,PG,1,100,9435
1631709008.654933,144252.000,23595,2,PG,1,100,9427
1631709008.692673,144289.667,23613,3,PG,1,100,9418
1631709008.730413,144327.333,23613,3,PG,1,100,9410
1631709008.768154,144365.000,23613,3,PG,1,100,9400
1631709008.806562,144403.333,23630,3,PG,1,100,9402
1631709008.844971,144441.667,23630,3,PG,1,100,9408
1631709008.883379,144480.000,23630,3,PG,1,100,9404
1631709008.924459,144521.000,23648,2,PG,1,100,9401
1631709008.965540,144562.000,23648,2,PG,1,100,9407
1631709009.004282,144600.667,23667,3,PG,1,100,9411
1631709009.043024,144639.333,23667,3,PG,1,100,9406
1631709009.081767,144678.000,23667,3,PG,1,100,9406
1631709009.119507,144715.667,23686,3,PG,1,100,9394
1631709009.157248,144753.333,23686,3,PG,1,100,9382
1631709009.194988,144791.000,23686,3,PG,1,100,9362
1631709009.236068,144832.000,23705,2,PG,1,100,9339
1631709009.277148,144873.000,23705,2,PG,1,100,9325
1631709009.314555,144910.333,23721,3,PG,1,100,9325
1631709009.351961,144947.667,23721,3,PG,1,100,9321
1631709009.389368,144985.000,23721,3,PG,1,100,9314
1631709009.430448,145026.000,23740,2,PG,1,100,9310
1631709009.471529,145067.000,23740,2,PG,1,100,9311
1631709009.509269,145104.667,23758,3,PG,1,100,9312
1631709009.547009,145142.333,23758,3,PG,1,100,9308
1631709009.584750,145180.000,23758,3,PG,1,100,9308
1631709009.623826,145219.000,23777,3,PG,1,100,9310
1631709009.662902,145258.000,23777,3,PG,1,100,9328
1631709009.701979,145297.000,23777,3,PG,1,100,9332
1631709009.742558,145337.500,23793,2,PG,1,100,9322
1631709009.783137,145378.000,23793,2,PG,1,100,9299
1631709009.821880,145416.667,23812,3,PG,1,100,9283
1631709009.860622,145455.333,23812,3,PG,1,100,9265
1631709009.899364,145494.000,23812,3,PG,1,100,9255
1631709009.939443,145534.000,23830,2,PG,1,100,9244
1631709009.979521,145574.000,23830,2,PG,1,100,9240
1631709010.017930,145612.333,23850,3,PG,1,100,9236
1631709010.056338,145650.667,23850,3,PG,1,100,9240
1631709010.094746,145689.000,23850,3,PG,1,100,9239
1631709010.135326,145729.500,23868,2,PG,1,100,9242
1631709010.175905,145770.000,23868,2,PG,1,100,9250
1631709010.214647,145808.667,23885,3,PG,1,100,9260
1631709010.253390,145847.333,23885,3,PG,1,100,9271
1631709010.292132,145886.000,23885,3,PG,1,100,9283
1631709010.332211,145926.000,23903,2,PG,1,100,9290
1631709010.372289,145966.000,23903,2,PG,1,100,9300
1631709010.410697,146004.333,23922,3,PG,1,100,9302
1631709010.449106,146042.667,23922,3,PG,1,100,9289
1631709010.487514,146081.000,23922,3,PG,1,100,9270
1631709010.530932,146124.333,23940,3,PG,1,100,9254
1631709010.574350,146167.667,23940,3,PG,1,100,9254
1631709010.617769,146211.000,23940,3,PG,1,100,9245
1631709010.650332,146243.500,23957,2,PG,1,100,9241
1631709010.682896,146276.000,23957,2,PG,1,100,9247
1631709010.726648,146319.667,23975,3,PG,1,100,9250
1631709010.770400,146363.333,23975,3,PG,1,100,9254
1631709010.814152,146407.000,23975,3,PG,1,100,9257
1631709010.847217,146440.000,23994,2,PG,1,100,9267
1631709010.880281,146473.000,23994,2,PG,1,100,9272
1631709010.923700,146516.333,24012,3,PG,1,100,9288
1631709010.967118,146559.667,24012,3,PG,1,100,9283
1631709011.010536,146603.000,24012,3,PG,1,100,9296
1631709011.048944,146641.333,24032,3,PG,1,100,9301
1631709011.087353,146679.667,24032,3,PG,1,100,9302
1631709011.125761,146718.000,24032,3,PG,1,100,9283
1631709011.166341,146758.500,24048,2,PG,1,100,9267
1631709011.206920,146799.000,24048,2,PG,1,100,9248
1631709011.244994,146837.000,24067,3,PG,1,100,9241
1631709011.283069,146875.000,24067,3,PG,1,100,9229
1631709011.321143,146913.000,24067,3,PG,1,100,9229
1631709011.362223,146954.000,24085,2,PG,1,100,9235
1631709011.403304,146995.000,24085,2,PG,1,100,9230
1631709011.441378,147033.000,24104,3,PG,1,100,9234
1631709011.479452,147071.000,24104,3,PG,1,100,9238
1631709011.517527,147109.000,24104,3,PG,1,100,9241
1631709011.558607,147150.000,24120,2,PG,1,100,9250
1631709011.599687,147191.000,24120,2,PG,1,100,9263
1631709011.638096,147229.333,24139,3,PG,1,100,9272
1631709011.676504,147267.667,24139,3,PG,1,100,9282
1631709011.714913,147306.000,24139,3,PG,1,100,9292
1631709011.752987,147344.000,24157,3,PG,1,100,9297
1631709011.791061,147382.000,24157,3,PG,1,100,9291
1631709011.829136,147420.000,24157,3,PG,1,100,9282
1631709011.870216,147461.000,24176,2,PG,1,100,9276
1631709011.911296,147502.000,24176,2,PG,1,100,9263
1631709011.949037,147539.667,24192,3,PG,1,100,9255
1631709011.986777,147577.333,24192,3,PG,1,100,9244
1631709012.024518,147615.000,24192,3,PG,1,100,9249
1631709012.065598,147656.000,24212,2,PG,1,100,9256
1631709012.106678,147697.000,24212,2,PG,1,100,9261
1631709012.144753,147735.000,24230,3,PG,1,100,9262
1631709012.182827,147773.000,24230,3,PG,1,100,9278
1631709012.220901,147811.000,24230,3,PG,1,100,9281
1631709012.259310,147849.333,24249,3,PG,1,100,9286
1631709012.297718,147887.667,24249,3,PG,1,100,9296
1631709012.336127,147926.000,24249,3,PG,1,100,9315
1631709012.379879,147969.667,24270,3,PG,1,100,9327
1631709012.423631,148013.333,24270,3,PG,1,100,9327
1631709012.467383,148057.000,24270,3,PG,1,100,9334
1631709012.499947,148089.500,24289,2,PG,1,100,9333
1631709012.532510,148122.000,24289,2,PG,1,100,9321
1631709012.576262,148165.667,24305,3,PG,1,100,9315
1631709012.620015,148209.333,24305,3,PG,1,100,9310
1631709012.663767,148253.000,24305,3,PG,1,100,9307
1631709012.702175,148291.333,24324,3,PG,1,100,9306
1631709012.740584,148329.667,24324,3,PG,1,100,9309
1631709012.778992,148368.000,24324,3,PG,1,100,9316
1631709012.818569,148407.500,24342,2,PG,1,100,9313
1631709012.858147,148447.000,24342,2,PG,1,100,9321
1631709012.897223,148486.000,24361,3,PG,1,100,9332
1631709012.936299,148525.000,24361,3,PG,1,100,9336
1631709012.975376,148564.000,24361,3,PG,1,100,9348
1631709013.015955,148604.500,24378,2,PG,1,100,9361
1631709013.056534,148645.000,24378,2,PG,1,100,9371
1631709013.094943,148683.333,24397,3,PG,1,100,9385
1631709013.133351,148721.667,24397,3,PG,1,100,9399
1631709013.171760,148760.000,24397,3,PG,1,100,9388
1631709013.209834,148798.000,24415,3,PG,1,100,9374
1631709013.247908,148836.000,24415,3,PG,1,100,9367
1631709013.285983,148874.000,24415,3,PG,1,100,9369
1631709013.326562,148914.500,24434,2,PG,1,100,9374
1631709013.367141,148955.000,24434,2,PG,1,100,9375
1631709013.405884,148993.667,24452,3,PG,1,100,9374
1631709013.444626,149032.333,24452,3,PG,1,100,9381
1631709013.483368,149071.000,24452,3,PG,1,100,9386
1631709013.524449,149112.000,24469,2,PG,1,100,9391
1631709013.565529,149153.000,24469,2,PG,1,100,9398
1631709013.602936,149190.333,24487,3,PG,1,100,9411
1631709013.640342,149227.667,24487,3,PG,1,100,9428
1631709013.677748,149265.000,24487,3,PG,1,100,9424
1631709013.719330,149306.500,24506,2,PG,1,100,9438
1631709013.760911,149348.000,24506,2,PG,1,100,9446
1631709013.798651,149385.667,24524,3,PG,1,100,9455
1631709013.836392,149423.333,24524,3,PG,1,100,9448
1631709013.874132,149461.000,24524,3,PG,1,100,9430
1631709013.912540,149499.333,24541,3,PG,1,100,9416
1631709013.950949,149537.667,24541,3,PG,1,100,9411
1631709013.989357,149576.000,24541,3,PG,1,100,9422
1631709014.030438,149617.000,24560,2,PG,1,100,9421
1631709014.071518,149658.000,24560,2,PG,1,100,9422
1631709014.109258,149695.667,24579,3,PG,1,100,9418
1631709014.146999,149733.333,24579,3,PG,1,100,9425
1631709014.184739,149771.000,24579,3,PG,1,100,9429
1631709014.223148,149809.333,24597,3,PG,1,100,9441
1631709014.261556,149847.667,24597,3,PG,1,100,9450
1631709014.299964,149886.000,24597,3,PG,1,100,9457
1631709014.340544,149926.500,24616,2,PG,1,100,9463
1631709014.381123,149967.000,24616,2,PG,1,100,9474
1631709014.418863,150004.667,24632,3,PG,1,100,9483
1631709014.456604,150042.333,24632,3,PG,1,100,9477
1631709014.494344,150080.000,24632,3,PG,1,100,9461
1631709014.535925,150121.500,24651,2,PG,1,100,9462
1631709014.577507,150163.000,24651,2,PG,1,100,9462
1631709014.615247,150200.667,24669,3,PG,1,100,9461
1631709014.652987,150238.333,24669,3,PG,1,100,9468
1631709014.690728,150276.000,24669,3,PG,1,100,9469
1631709014.731307,150316.500,24688,2,PG,1,100,9477
1631709014.771887,150357.000,24688,2,PG,1,100,9484
1631709014.809961,150395.000,24704,3,PG,1,100,9485
1631709014.848035,150433.000,24704,3,PG,1,100,9500
1631709014.886110,150471.000,24704,3,PG,1,100,9503
1631709014.926689,150511.500,24723,2,PG,1,100,9521
1631709014.967268,150552.000,24723,2,PG,1,100,9529
1631709015.005677,150590.333,24742,3,PG,1,100,9532
1631709015.044085,150628.667,24742,3,PG,1,100,9521
1631709015.082494,150667.000,24742,3,PG,1,100,9492
1631709015.124075,150708.500,24761,2,PG,1,100,9499
1631709015.165656,150750.000,24761,2,PG,1,100,9489
1631709015.203397,150787.667,24779,3,PG,1,100,9480
1631709015.241137,150825.333,24779,3,PG,1,100,9475
1631709015.278877,150863.000,24779,3,PG,1,100,9481
1631709015.322295,150906.333,24796,3,PG,1,100,9475
1631709015.365714,150949.667,24796,3,PG,1,100,9471
1631709015.409132,150993.000,24796,3,PG,1,100,9475
1631709015.441695,151025.500,24814,2,PG,1,100,9494
1631709015.474259,151058.000,24814,2,PG,1,100,9506
1631709015.518345,151102.000,24833,3,PG,1,100,9484
1631709015.562432,151146.000,24833,3,PG,1,100,9488
1631709015.606518,151190.000,24833,3,PG,1,100,9494
1631709015.639081,151222.500,24851,2,PG,1,100,9491
1631709015.671645,151255.000,24851,2,PG,1,100,9473
1631709015.715063,151298.333,24868,3,PG,1,100,9460
1631709015.758481,151341.667,24868,3,PG,1,100,9457
1631709015.801899,151385.000,24868,3,PG,1,100,9444
1631709015.840308,151423.333,24886,3,PG,1,100,9442
1631709015.878716,151461.667,24886,3,PG,1,100,9445
1631709015.917125,151500.000,24886,3,PG,1,100,9438
1631709015.956702,151539.500,24906,2,PG,1,100,9435
1631709015.996279,151579.000,24906,2,PG,1,100,9435
1631709016.034688,151617.333,24924,3,PG,1,100,9437
1631709016.073096,151655.667,24924,3,PG,1,100,9431
1631709016.111505,151694.000,24924,3,PG,1,100,9432
1631709016.152585,151735.000,24943,2,PG,1,100,9434
1631709016.193665,151776.000,24943,2,PG,1,100,9418
1631709016.231740,151814.000,24959,3,PG,1,100,9402
1631709016.269814,151852.000,24959,3,PG,1,100,9383
1631709016.307888,151890.000,24959,3,PG,1,100,9370
1631709016.346297,151928.333,24978,3,PG,1,100,9370
1631709016.384705,151966.667,24978,3,PG,1,100,9376
1631709016.423113,152005.000,24978,3,PG,1,100,9378
1631709016.463693,152045.500,24996,2,PG,1,100,9375
1631709016.504272,152086.000,24996,2,PG,1,100,9380
1631709016.542346,152124.000,25015,3,PG,1,100,9396
1631709016.580421,152162.000,25015,3,PG,1,100,9395
1631709016.618495,152200.000,25015,3,PG,1,100,9400
1631709016.660077,152241.500,25031,2,PG,1,100,9414
1631709016.701658,152283.000,25031,2,PG,1,100,9429
1631709016.739398,152320.667,25050,3,PG,1,100,9408
1631709016.777139,152358.333,25050,3,PG,1,100,9405
1631709016.814879,152396.000,25050,3,PG,1,100,9396
1631709016.853287,152434.333,25068,3,PG,1,100,9391
1631709016.891696,152472.667,25068,3,PG,1,100,9396
1631709016.930104,152511.000,25068,3,PG,1,100,9380
1631709016.971184,152552.000,25088,2,PG,1,100,9371
1631709017.012265,152593.000,25088,2,PG,1,100,9362
1631709017.049671,152630.333,25104,3,PG,1,100,9360
1631709017.087078,152667.667,25104,3,PG,1,100,9355
1631709017.124484,152705.000,25104,3,PG,1,100,9352
1631709017.166065,152746.500,25123,2,PG,1,100,9356
1631709017.207647,152788.000,25123,2,PG,1,100,9348
1631709017.245721,152826.000,25141,3,PG,1,100,9314
1631709017.283795,152864.000,25141,3,PG,1,100,9272
1631709017.321870,152902.000,25141,3,PG,1,100,9234
1631709017.362449,152942.500,25160,2,PG,1,100,9186
1631709017.403028,152983.000,25160,2,PG,1,100,9149
1631709017.442105,153022.000,25184,5,PG,1,100,9124
1631709017.481181,153061.000,25184,5,PG,1,100,9096
1631709017.520257,153100.000,25184,5,PG,1,100,9067
1631709017.559334,153139.000,25184,5,PG,1,100,9037
1631709017.598410,153178.000,25184,5,PG,1,100,9039
1631709017.636485,153216.000,25202,3,PG,1,100,9050
1631709017.674559,153254.000,25202,3,PG,1,100,9061
1631709017.712633,153292.000,25202,3,PG,1,100,9064
1631709017.754215,153333.500,25221,2,PG,1,100,9052
1631709017.795796,153375.000,25221,2,PG,1,100,9046
1631709017.833870,153413.000,25239,3,PG,1,100,9042
1631709017.871945,153451.000,25239,3,PG,1,100,9036
1631709017.910019,153489.000,25239,3,PG,1,100,9038
1631709017.951099,153530.000,25257,2,PG,1,100,9045
1631709017.992180,153571.000,25257,2,PG,1,100,9060
1631709018.029920,153608.667,25275,3,PG,1,100,9066
1631709018.067661,153646.333,25275,3,PG,1,100,9082
1631709018.105401,153684.000,25275,3,PG,1,100,9092
1631709018.145980,153724.500,25294,2,PG,1,100,9117
1631709018.186560,153765.000,25294,2,PG,1,100,9132
1631709018.224968,153803.333,25312,3,PG,1,100,9135
1631709018.263376,153841.667,25312,3,PG,1,100,9128
1631709018.301785,153880.000,25312,3,PG,1,100,9119
1631709018.342865,153921.000,25329,2,PG,1,100,9132
1631709018.383945,153962.000,25329,2,PG,1,100,9125
1631709018.422020,154000.000,25347,3,PG,1,100,9126
1631709018.460094,154038.000,25347,3,PG,1,100,9141
1631709018.498168,154076.000,25347,3,PG,1,100,9141
1631709018.541587,154119.333,25366,3,PG,1,100,9150
1631709018.585005,154162.667,25366,3,PG,1,100,9153
1631709018.628423,154206.000,25366,3,PG,1,100,9161
1631709018.660987,154238.500,25384,2,PG,1,100,9163
1631709018.693550,154271.000,25384,2,PG,1,100,9169
1631709018.737303,154314.667,25403,3,PG,1,100,9179
1631709018.781055,154358.333,25403,3,PG,1,100,9162
1631709018.824807,154402.000,25403,3,PG,1,100,9128
1631709018.862881,154440.000,25420,3,PG,1,100,9109
1631709018.900956,154478.000,25420,3,PG,1,100,9092
1631709018.939030,154516.000,25420,3,PG,1,100,9089
1631709018.980611,154557.500,25439,2,PG,1,100,9094
1631709019.022193,154599.000,25439,2,PG,1,100,9092
1631709019.059933,154636.667,25457,3,PG,1,100,9096
1631709019.097673,154674.333,25457,3,PG,1,100,9105
1631709019.135414,154712.000,25457,3,PG,1,100,9107
1631709019.175492,154752.000,25476,2,PG,1,100,9104
1631709019.215570,154792.000,25476,2,PG,1,100,9110
1631709019.253979,154830.333,25492,3,PG,1,100,9120
1631709019.292387,154868.667,25492,3,PG,1,100,9117
1631709019.330796,154907.000,25492,3,PG,1,100,9107
1631709019.369204,154945.333,25511,3,PG,1,100,9091
1631709019.407613,154983.667,25511,3,PG,1,100,9059
1631709019.446021,155022.000,25511,3,PG,1,100,9027
1631709019.487101,155063.000,25529,2,PG,1,100,8981
1631709019.528182,155104.000,25529,2,PG,1,100,8935
1631709019.566924,155142.667,25548,3,PG,1,100,8901
1631709019.605666,155181.333,25548,3,PG,1,100,8883
1631709019.644409,155220.000,25548,3,PG,1,100,8876
1631709019.684487,155260.000,25564,2,PG,1,100,8874
1631709019.724565,155300.000,25564,2,PG,1,100,8873
1631709019.762974,155338.333,25583,3,PG,1,100,8890
1631709019.801382,155376.667,25583,3,PG,1,100,8906
1631709019.839790,155415.000,25583,3,PG,1,100,8909
1631709019.880871,155456.000,25602,2,PG,1,100,8927
1631709019.921951,155497.000,25602,2,PG,1,100,8939
1631709019.959691,155534.667,25621,3,PG,1,100,8966
1631709019.997432,155572.333,25621,3,PG,1,100,8978
1631709020.035172,155610.000,25621,3,PG,1,100,8993
1631709020.073581,155648.333,25639,3,PG,1,100,8996
1631709020.111989,155686.667,25639,3,PG,1,100,8987
1631709020.150398,155725.000,25639,3,PG,1,100,8974
1631709020.190476,155765.000,25656,2,PG,1,100,8962
1631709020.230554,155805.000,25656,2,PG,1,100,8951
1631709020.268628,155843.000,25674,3,PG,1,100,8956
1631709020.306703,155881.000,25674,3,PG,1,100,8964
1631709020.344777,155919.000,25674,3,PG,1,100,8969
1631709020.383186,155957.333,25693,3,PG,1,100,8974
1631709020.421594,155995.667,25693,3,PG,1,100,8975
1631709020.460002,156034.000,25693,3,PG,1,100,8988
1631709020.501584,156075.500,25711,2,PG,1,100,8994
1631709020.543165,156117.000,25711,2,PG,1,100,9004
1631709020.581239,156155.000,25728,3,PG,1,100,9019
1631709020.619314,156193.000,25728,3,PG,1,100,9032
1631709020.657388,156231.000,25728,3,PG,1,100,9052
1631709020.698468,156272.000,25746,2,PG,1,100,9072
1631709020.739549,156313.000,25746,2,PG,1,100,9075
1631709020.776955,156350.333,25765,3,PG,1,100,9067
1631709020.814362,156387.667,25765,3,PG,1,100,9048
1631709020.851768,156425.000,25765,3,PG,1,100,9037
1631709020.893349,156466.500,25784,2,PG,1,100,9038
1631709020.934931,156508.000,25784,2,PG,1,100,9033
1631709020.972671,156545.667,25803,3,PG,1,100,9033
1631709021.010412,156583.333,25803,3,PG,1,100,9041
1631709021.048152,156621.000,25803,3,PG,1,100,9046
1631709021.089232,156662.000,25819,2,PG,1,100,9058
1631709021.130312,156703.000,25819,2,PG,1,100,9063
1631709021.168387,156741.000,25838,3,PG,1,100,9070
1631709021.206461,156779.000,25838,3,PG,1,100,9073
1631709021.244536,156817.000,25838,3,PG,1,100,9076
1631709021.285616,156858.000,25856,2,PG,1,100,9093
1631709021.326696,156899.000,25856,2,PG,1,100,9101
1631709021.364437,156936.667,25875,3,PG,1,100,9108
1631709021.402177,156974.333,25875,3,PG,1,100,9116
1631709021.439917,157012.000,25875,3,PG,1,100,9104
1631709021.484004,157056.000,25891,3,PG,1,100,9077
1631709021.528090,157100.000,25891,3,PG,1,100,9045
1631709021.572176,157144.000,25891,3,PG,1,100,9022
1631709021.604739,157176.500,25910,2,PG,1,100,8998
1631709021.637303,157209.000,25910,2,PG,1,100,8976
1631709021.681055,157252.667,25928,3,PG,1,100,8945
1631709021.724808,157296.333,25928,3,PG,1,100,8928
1631709021.768560,157340.000,25928,3,PG,1,100,8908
1631709021.800622,157372.000,25948,2,PG,1,100,8914
1631709021.832685,157404.000,25948,2,PG,1,100,8904
1631709021.876437,157447.667,25966,3,PG,1,100,8898
1631709021.920189,157491.333,25966,3,PG,1,100,8903
1631709021.963942,157535.000,25966,3,PG,1,100,8904
1631709022.001682,157572.667,25983,3,PG,1,100,8910
1631709022.039422,157610.333,25983,3,PG,1,100,8913
1631709022.077163,157648.000,25983,3,PG,1,100,8925
1631709022.119245,157690.000,26001,2,PG,1,100,8920
1631709022.161327,157732.000,26001,2,PG,1,100,8890
1631709022.199402,157770.000,26020,3,PG,1,100,8844
1631709022.237476,157808.000,26020,3,PG,1,100,8806
1631709022.275550,157846.000,26020,3,PG,1,100,8774
1631709022.316130,157886.500,26038,2,PG,1,100,8741
1631709022.356709,157927.000,26038,2,PG,1,100,8726
1631709022.394783,157965.000,26055,3,PG,1,100,8723
1631709022.432858,158003.000,26055,3,PG,1,100,8720
1631709022.470932,158041.000,26055,3,PG,1,100,8711
1631709022.512012,158082.000,26073,2,PG,1,100,8716
1631709022.553093,158123.000,26073,2,PG,1,100,8716
1631709022.589664,158159.500,26097,4,PG,1,100,8724
1631709022.626236,158196.000,26097,4,PG,1,100,8733
1631709022.662807,158232.500,26097,4,PG,1,100,8741
1631709022.699379,158269.000,26097,4,PG,1,100,8754
1631709022.737787,158307.333,26116,3,PG,1,100,8772
1631709022.776196,158345.667,26116,3,PG,1,100,8784
1631709022.814604,158384.000,26116,3,PG,1,100,8788
1631709022.858022,158427.333,26135,3,PG,1,100,8777
1631709022.901440,158470.667,26135,3,PG,1,100,8752
1631709022.944859,158514.000,26135,3,PG,1,100,8729
1631709022.977923,158547.000,26153,2,PG,1,100,8717
1631709023.010988,158580.000,26153,2,PG,1,100,8702
1631709023.054406,158623.333,26170,3,PG,1,100,8693
1631709023.097824,158666.667,26170,3,PG,1,100,8714
1631709023.141242,158710.000,26170,3,PG,1,100,8716
1631709023.174307,158743.000,26188,2,PG,1,100,8719
1631709023.207371,158776.000,26188,2,PG,1,100,8727
1631709023.251458,158820.000,26207,3,PG,1,100,8736
1631709023.295544,158864.000,26207,3,PG,1,100,8740
1631709023.339630,158908.000,26207,3,PG,1,100,8756
1631709023.377370,158945.667,26225,3,PG,1,100,8768
1631709023.415111,158983.333,26225,3,PG,1,100,8778
1631709023.452851,159021.000,26225,3,PG,1,100,8808
1631709023.493430,159061.500,26244,2,PG,1,100,8810
1631709023.534010,159102.000,26244,2,PG,1,100,8828
1631709023.572418,159140.333,26260,3,PG,1,100,8838
1631709023.610826,159178.667,26260,3,PG,1,100,8820
1631709023.649235,159217.000,26260,3,PG,1,100,8801
1631709023.689814,159257.500,26279,2,PG,1,100,8773
1631709023.730394,159298.000,26279,2,PG,1,100,8758
1631709023.768802,159336.333,26298,3,PG,1,100,8744
1631709023.807210,159374.667,26298,3,PG,1,100,8736
1631709023.845619,159413.000,26298,3,PG,1,100,8736
1631709023.886699,159454.000,26317,2,PG,1,100,8738
1631709023.927779,159495.000,26317,2,PG,1,100,8735
1631709023.965854,159533.000,26333,3,PG,1,100,8737
1631709024.003928,159571.000,26333,3,PG,1,100,8748
1631709024.042002,159609.000,26333,3,PG,1,100,8755
1631709024.080411,159647.333,26352,3,PG,1,100,8766
1631709024.118819,159685.667,26352,3,PG,1,100,8769
1631709024.157228,159724.000,26352,3,PG,1,100,8782
1631709024.197306,159764.000,26370,2,PG,1,100,8798
1631709024.237384,159804.000,26370,2,PG,1,100,8808
1631709024.275793,159842.333,26389,3,PG,1,100,8828
1631709024.314201,159880.667,26389,3,PG,1,100,8826
1631709024.352609,159919.000,26389,3,PG,1,100,8809
1631709024.393189,159959.500,26407,2,PG,1,100,8799
1631709024.433768,160000.000,26407,2,PG,1,100,8782
1631709024.471843,160038.000,26424,3,PG,1,100,8769
1631709024.509917,160076.000,26424,3,PG,1,100,8756
1631709024.547991,160114.000,26424,3,PG,1,100,8759
1631709024.586066,160152.000,26442,3,PG,1,100,8759
1631709024.624140,160190.000,26442,3,PG,1,100,8755
1631709024.662215,160228.000,26442,3,PG,1,100,8751
1631709024.703295,160269.000,26461,2,PG,1,100,8750
1631709024.744375,160310.000,26461,2,PG,1,100,8769
1631709024.782784,160348.333,26480,3,PG,1,100,8781
1631709024.821192,160386.667,26480,3,PG,1,100,8801
1631709024.859600,160425.000,26480,3,PG,1,100,8814
1631709024.900681,160466.000,26497,2,PG,1,100,8829
1631709024.941761,160507.000,26497,2,PG,1,100,8840
1631709024.979835,160545.000,26515,3,PG,1,100,8849
1631709025.017910,160583.000,26515,3,PG,1,100,8871
1631709025.055984,160621.000,26515,3,PG,1,100,8885
1631709025.097064,160662.000,26534,2,PG,1,100,8904
1631709025.138145,160703.000,26534,2,PG,1,100,8914
1631709025.175885,160740.667,26552,3,PG,1,100,8925
1631709025.213625,160778.333,26552,3,PG,1,100,8941
1631709025.251366,160816.000,26552,3,PG,1,100,8954
1631709025.291945,160856.500,26569,2,PG,1,100,8973
1631709025.332525,160897.000,26569,2,PG,1,100,8984
1631709025.370933,160935.333,26587,3,PG,1,100,9002
1631709025.409341,160973.667,26587,3,PG,1,100,9012
1631709025.447750,161012.000,26587,3,PG,1,100,9016
1631709025.490834,161055.000,26606,3,PG,1,100,9028
1631709025.533918,161098.000,26606,3,PG,1,100,9035
1631709025.577002,161141.000,26606,3,PG,1,100,9037
1631709025.610067,161174.000,26624,2,PG,1,100,9039
1631709025.643131,161207.000,26624,2,PG,1,100,9037
1631709025.686884,161250.667,26643,3,PG,1,100,9043
1631709025.730636,161294.333,26643,3,PG,1,100,9029
1631709025.774388,161338.000,26643,3,PG,1,100,9001
1631709025.806952,161370.500,26660,2,PG,1,100,8994
1631709025.839515,161403.000,26660,2,PG,1,100,8993
1631709025.882933,161446.333,26679,3,PG,1,100,8988
1631709025.926352,161489.667,26679,3,PG,1,100,8981
1631709025.969770,161533.000,26679,3,PG,1,100,8988
1631709026.002834,161566.000,26697,2,PG,1,100,8995
1631709026.035899,161599.000,26697,2,PG,1,100,9003
1631709026.079317,161642.333,26716,3,PG,1,100,8998
1631709026.122736,161685.667,26716,3,PG,1,100,8999
1631709026.166154,161729.000,26716,3,PG,1,100,9014
1631709026.204228,161767.000,26732,3,PG,1,100,9035
1631709026.242302,161805.000,26732,3,PG,1,100,9053
1631709026.280377,161843.000,26732,3,PG,1,100,9070
1631709026.320956,161883.500,26751,2,PG,1,100,9082
1631709026.361535,161924.000,26751,2,PG,1,100,9094
1631709026.399610,161962.000,26769,3,PG,1,100,9104
1631709026.437684,162000.000,26769,3,PG,1,100,9100
1631709026.475759,162038.000,26769,3,PG,1,100,9106
1631709026.513833,162076.000,26788,3,PG,1,100,9121
1631709026.551908,162114.000,26788,3,PG,1,100,9130
1631709026.589982,162152.000,26788,3,PG,1,100,9133
1631709026.631062,162193.000,26806,2,PG,1,100,9129
1631709026.672143,162234.000,26806,2,PG,1,100,9144
1631709026.710217,162272.000,26824,3,PG,1,100,9159
1631709026.748291,162310.000,26824,3,PG,1,100,9166
1631709026.786366,162348.000,26824,3,PG,1,100,9170
1631709026.826945,162388.500,26842,2,PG,1,100,9184
1631709026.867524,162429.000,26842,2,PG,1,100,9191
1631709026.905265,162466.667,26861,3,PG,1,100,9194
1631709026.943005,162504.333,26861,3,PG,1,100,9199
1631709026.980746,162542.000,26861,3,PG,1,100,9182
1631709027.022828,162584.000,26879,2,PG,1,100,9173
1631709027.064910,162626.000,26879,2,PG,1,100,9158
1631709027.102650,162663.667,26896,3,PG,1,100,9161
1631709027.140391,162701.333,26896,3,PG,1,100,9164
1631709027.178131,162739.000,26896,3,PG,1,100,9164
1631709027.216206,162777.000,26914,3,PG,1,100,9163
1631709027.254280,162815.000,26914,3,PG,1,100,9177
1631709027.292354,162853.000,26914,3,PG,1,100,9183
1631709027.332934,162893.500,26933,2,PG,1,100,9186
1631709027.373513,162934.000,26933,2,PG,1,100,9190
1631709027.411587,162972.000,26951,3,PG,1,100,9190
1631709027.449662,163010.000,26951,3,PG,1,100,9203
1631709027.487736,163048.000,26951,3,PG,1,100,9213
1631709027.526145,163086.333,26970,3,PG,1,100,9205
1631709027.564553,163124.667,26970,3,PG,1,100,9195
1631709027.602962,163163.000,26970,3,PG,1,100,9192
1631709027.644042,163204.000,26986,2,PG,1,100,9175
1631709027.685122,163245.000,26986,2,PG,1,100,9173
1631709027.722862,163282.667,27011,3,PG,1,100,9168
1631709027.760603,163320.333,27011,3,PG,1,100,9165
1631709027.798343,163358.000,27011,3,PG,1,100,9163
1631709027.839424,163399.000,27029,2,PG,1,100,9166
1631709027.880504,163440.000,27029,2,PG,1,100,9164
1631709027.917910,163477.333,27048,3,PG,1,100,9168
1631709027.955317,163514.667,27048,3,PG,1,100,9174
1631709027.992723,163552.000,27048,3,PG,1,100,9192
1631709028.036809,163596.000,27066,3,PG,1,100,9178
1631709028.080895,163640.000,27066,3,PG,1,100,9169
1631709028.124982,163684.000,27066,3,PG,1,100,9164
1631709028.157545,163716.500,27083,2,PG,1,100,9162
1631709028.190109,163749.000,27083,2,PG,1,100,9158
1631709028.233861,163792.667,27101,3,PG,1,100,9151
1631709028.277613,163836.333,27101,3,PG,1,100,9149
1631709028.321365,163880.000,27101,3,PG,1,100,9136
1631709028.353929,163912.500,27120,2,PG,1,100,9133
1631709028.386493,163945.000,27120,2,PG,1,100,9131
1631709028.429911,163988.333,27138,3,PG,1,100,9125
1631709028.473329,164031.667,27138,3,PG,1,100,9137
1631709028.516747,164075.000,27138,3,PG,1,100,9156
1631709028.549812,164108.000,27155,2,PG,1,100,9152
1631709028.582876,164141.000,27155,2,PG,1,100,9145
1631709028.626963,164185.000,27173,3,PG,1,100,9133
1631709028.671049,164229.000,27173,3,PG,1,100,9120
1631709028.715135,164273.000,27173,3,PG,1,100,9114
1631709028.752875,164310.667,27193,3,PG,1,100,9106
1631709028.790616,164348.333,27193,3,PG,1,100,9108
1631709028.828356,164386.000,27193,3,PG,1,100,9103
1631709028.869437,164427.000,27211,2,PG,1,100,9109
1631709028.910517,164468.000,27211,2,PG,1,100,9110
1631709028.947589,164505.000,27228,3,PG,1,100,9120
1631709028.984662,164542.000,27228,3,PG,1,100,9123
1631709029.021734,164579.000,27228,3,PG,1,100,9124
1631709029.060143,164617.333,27246,3,PG,1,100,9123
1631709029.098551,164655.667,27246,3,PG,1,100,9109
1631709029.136959,164694.000,27246,3,PG,1,100,9106
1631709029.186556,164743.500,27265,2,PG,1,100,9105
1631709029.236153,164793.000,27265,2,PG,1,100,9103
1631709029.277734,164834.500,27283,2,PG,1,100,9111
1631709029.319316,164876.000,27283,2,PG,1,100,9123
1631709029.359895,164916.500,27302,2,PG,1,100,9134
1631709029.400474,164957.000,27302,2,PG,1,100,9156
1631709029.438883,164995.333,27318,3,PG,1,100,9170
1631709029.477291,165033.667,27318,3,PG,1,100,9201
1631709029.515699,165072.000,27318,3,PG,1,100,9226
1631709029.556279,165112.500,27337,2,PG,1,100,9257
1631709029.596858,165153.000,27337,2,PG,1,100,9284
1631709029.635266,165191.333,27356,3,PG,1,100,9293
1631709029.673675,165229.667,27356,3,PG,1,100,9245
1631709029.712083,165268.000,27356,3,PG,1,100,9216
1631709029.755835,165311.667,27375,3,PG,1,100,9228
1631709029.799587,165355.333,27375,3,PG,1,100,9220
1631709029.843340,165399.000,27375,3,PG,1,100,9226
1631709029.876404,165432.000,27391,2,PG,1,100,9241
1631709029.909469,165465.000,27391,2,PG,1,100,9254
1631709029.952553,165508.000,27410,3,PG,1,100,9279
1631709029.995637,165551.000,27410,3,PG,1,100,9281
1631709030.038722,165594.000,27410,3,PG,1,100,9299
1631709030.071786,165627.000,27428,2,PG,1,100,9316
1631709030.104851,165660.000,27428,2,PG,1,100,9335
1631709030.148269,165703.333,27447,3,PG,1,100,9356
1631709030.191687,165746.667,27447,3,PG,1,100,9375
1631709030.235105,165790.000,27447,3,PG,1,100,9343
1631709030.273514,165828.333,27465,3,PG,1,100,9307
1631709030.311922,165866.667,27465,3,PG,1,100,9292
1631709030.350330,165905.000,27465,3,PG,1,100,9289
1631709030.391411,165946.000,27482,2,PG,1,100,9294
1631709030.432491,165987.000,27482,2,PG,1,100,9297
1631709030.470565,166025.000,27500,3,PG,1,100,9305
1631709030.508640,166063.000,27500,3,PG,1,100,9307
1631709030.546714,166101.000,27500,3,PG,1,100,9314
1631709030.587294,166141.500,27519,2,PG,1,100,9321
1631709030.627873,166182.000,27519,2,PG,1,100,9339
1631709030.666281,166220.333,27538,3,PG,1,100,9349
1631709030.704690,166258.667,27538,3,PG,1,100,9359
1631709030.743098,166297.000,27538,3,PG,1,100,9369
1631709030.780504,166334.333,27555,3,PG,1,100,9378
1631709030.817911,166371.667,27555,3,PG,1,100,9378
1631709030.855317,166409.000,27555,3,PG,1,100,9360
1631709030.896398,166450.000,27573,2,PG,1,100,9342
1631709030.937478,166491.000,27573,2,PG,1,100,9324
1631709030.975552,166529.000,27592,3,PG,1,100,9316
1631709031.013627,166567.000,27592,3,PG,1,100,9314
1631709031.051701,166605.000,27592,3,PG,1,100,9320
1631709031.092781,166646.000,27610,2,PG,1,100,9330
1631709031.133862,166687.000,27610,2,PG,1,100,9333
1631709031.171936,166725.000,27629,3,PG,1,100,9337
1631709031.210011,166763.000,27629,3,PG,1,100,9358
1631709031.248085,166801.000,27629,3,PG,1,100,9357
1631709031.286493,166839.333,27645,3,PG,1,100,9368
1631709031.324902,166877.667,27645,3,PG,1,100,9384
1631709031.363310,166916.000,27645,3,PG,1,100,9396
1631709031.404390,166957.000,27664,2,PG,1,100,9427
1631709031.445471,166998.000,27664,2,PG,1,100,9436
1631709031.483879,167036.333,27682,3,PG,1,100,9464
1631709031.522287,167074.667,27682,3,PG,1,100,9465
1631709031.560696,167113.000,27682,3,PG,1,100,9423
1631709031.600774,167153.000,27701,2,PG,1,100,9413
1631709031.640852,167193.000,27701,2,PG,1,100,9411
1631709031.678927,167231.000,27718,3,PG,1,100,9415
1631709031.717001,167269.000,27718,3,PG,1,100,9438
1631709031.755076,167307.000,27718,3,PG,1,100,9452
1631709031.795655,167347.500,27737,2,PG,1,100,9473
1631709031.836234,167388.000,27737,2,PG,1,100,9486
1631709031.874643,167426.333,27755,3,PG,1,100,9510
1631709031.913051,167464.667,27755,3,PG,1,100,9535
1631709031.951459,167503.000,27755,3,PG,1,100,9549
1631709031.992540,167544.000,27774,2,PG,1,100,9577
1631709032.033620,167585.000,27774,2,PG,1,100,9593
1631709032.071694,167623.000,27790,3,PG,1,100,9603
1631709032.109769,167661.000,27790,3,PG,1,100,9617
1631709032.147843,167699.000,27790,3,PG,1,100,9626
1631709032.188923,167740.000,27809,2,PG,1,100,9629
1631709032.230004,167781.000,27809,2,PG,1,100,9636
1631709032.267744,167818.667,27827,3,PG,1,100,9619
1631709032.305485,167856.333,27827,3,PG,1,100,9594
1631709032.343225,167894.000,27827,3,PG,1,100,9589
1631709032.386643,167937.333,27846,3,PG,1,100,9593
1631709032.430061,167980.667,27846,3,PG,1,100,9603
1631709032.473480,168024.000,27846,3,PG,1,100,9624
1631709032.507045,168057.500,27864,2,PG,1,100,9641
1631709032.540611,168091.000,27864,2,PG,1,100,9652
1631709032.584029,168134.333,27882,3,PG,1,100,9662
1631709032.627447,168177.667,27882,3,PG,1,100,9680
1631709032.670865,168221.000,27882,3,PG,1,100,9691
1631709032.703429,168253.500,27900,2,PG,1,100,9688
1631709032.735993,168286.000,27900,2,PG,1,100,9695
1631709032.779411,168329.333,27919,3,PG,1,100,9702
1631709032.822829,168372.667,27919,3,PG,1,100,9709
1631709032.866247,168416.000,27919,3,PG,1,100,9705
1631709032.904321,168454.000,27942,3,PG,1,100,9711
1631709032.942396,168492.000,27942,3,PG,1,100,9705
1631709032.980470,168530.000,27942,3,PG,1,100,9673
1631709033.021551,168571.000,27959,2,PG,1,100,9667
1631709033.062631,168612.000,27959,2,PG,1,100,9672
1631709033.101373,168650.667,27977,3,PG,1,100,9685
1631709033.140116,168689.333,27977,3,PG,1,100,9700
1631709033.178858,168728.000,27977,3,PG,1,100,9706
1631709033.218936,168768.000,27996,2,PG,1,100,9716
1631709033.259015,168808.000,27996,2,PG,1,100,9732
1631709033.297423,168846.333,28014,3,PG,1,100,9744
1631709033.335831,168884.667,28014,3,PG,1,100,9748
1631709033.374240,168923.000,28014,3,PG,1,100,9756
1631709033.411980,168960.667,28033,3,PG,1,100,9766
1631709033.449721,168998.333,28033,3,PG,1,100,9770
1631709033.487461,169036.000,28033,3,PG,1,100,9768
1631709033.526203,169074.667,28049,3,PG,1,100,9766
1631709033.564946,169113.333,28049,3,PG,1,100,9786
1631709033.603688,169152.000,28049,3,PG,1,100,9769
1631709033.644268,169192.500,28069,2,PG,1,100,9746
1631709033.684847,169233.000,28069,2,PG,1,100,9729
1631709033.722587,169270.667,28087,3,PG,1,100,9726
1631709033.760328,169308.333,28087,3,PG,1,100,9747
1631709033.798068,169346.000,28087,3,PG,1,100,9757
1631709033.839148,169387.000,28106,2,PG,1,100,9768
1631709033.880229,169428.000,28106,2,PG,1,100,9786
1631709033.918303,169466.000,28124,3,PG,1,100,9793
1631709033.956378,169504.000,28124,3,PG,1,100,9802
1631709033.994452,169542.000,28124,3,PG,1,100,9810
1631709034.032192,169579.667,28141,3,PG,1,100,9814
1631709034.069933,169617.333,28141,3,PG,1,100,9828
1631709034.107673,169655.000,28141,3,PG,1,100,9832
1631709034.149254,169696.500,28159,2,PG,1,100,9824
1631709034.190836,169738.000,28159,2,PG,1,100,9834
1631709034.228576,169775.667,28178,3,PG,1,100,9829
1631709034.266316,169813.333,28178,3,PG,1,100,9809
1631709034.304057,169851.000,28178,3,PG,1,100,9779
1631709034.345137,169892.000,28196,2,PG,1,100,9768
1631709034.386218,169933.000,28196,2,PG,1,100,9768
1631709034.423958,169970.667,28215,3,PG,1,100,9782
1631709034.461698,170008.333,28215,3,PG,1,100,9795
1631709034.499439,170046.000,28215,3,PG,1,100,9808
1631709034.543525,170090.000,28232,3,PG,1,100,9811
1631709034.587611,170134.000,28232,3,PG,1,100,9827
1631709034.631697,170178.000,28232,3,PG,1,100,9841
1631709034.664261,170210.500,28251,2,PG,1,100,9851
1631709034.696825,170243.000,28251,2,PG,1,100,9861
1631709034.740577,170286.667,28269,3,PG,1,100,9864
1631709034.784329,170330.333,28269,3,PG,1,100,9869
1631709034.828081,170374.000,28269,3,PG,1,100,9875
1631709034.860645,170406.500,28288,2,PG,1,100,9877
1631709034.893208,170439.000,28288,2,PG,1,100,9872
1631709034.936626,170482.333,28304,3,PG,1,100,9845
1631709034.980045,170525.667,28304,3,PG,1,100,9833
1631709035.023463,170569.000,28304,3,PG,1,100,9819
1631709035.061871,170607.333,28323,3,PG,1,100,9827
1631709035.100280,170645.667,28323,3,PG,1,100,9831
1631709035.138688,170684.000,28323,3,PG,1,100,9848
1631709035.179768,170725.000,28341,2,PG,1,100,9855
1631709035.220849,170766.000,28341,2,PG,1,100,9860
1631709035.258923,170804.000,28360,3,PG,1,100,9876
1631709035.296997,170842.000,28360,3,PG,1,100,9886
1631709035.335072,170880.000,28360,3,PG,1,100,9901
1631709035.376152,170921.000,28376,2,PG,1,100,9904
1631709035.417232,170962.000,28376,2,PG,1,100,9906
1631709035.455307,171000.000,28395,3,PG,1,100,9911
1631709035.493381,171038.000,28395,3,PG,1,100,9915
1631709035.531456,171076.000,28395,3,PG,1,100,9917
1631709035.569196,171113.667,28414,3,PG,1,100,9916
1631709035.606936,171151.333,28414,3,PG,1,100,9910
1631709035.644677,171189.000,28414,3,PG,1,100,9880
1631709035.685757,171230.000,28433,2,PG,1,100,9873
1631709035.726837,171271.000,28433,2,PG,1,100,9875
1631709035.765246,171309.333,28451,3,PG,1,100,9888
1631709035.803654,171347.667,28451,3,PG,1,100,9897
1631709035.842062,171386.000,28451,3,PG,1,100,9902
1631709035.882642,171426.500,28468,2,PG,1,100,9911
1631709035.923221,171467.000,28468,2,PG,1,100,9923
1631709035.961630,171505.333,28486,3,PG,1,100,9930
1631709036.000038,171543.667,28486,3,PG,1,100,9941
1631709036.038446,171582.000,28486,3,PG,1,100,9950
1631709036.075519,171619.000,28505,3,PG,1,100,9954
1631709036.112591,171656.000,28505,3,PG,1,100,9959
1631709036.149664,171693.000,28505,3,PG,1,100,9957
1631709036.191245,171734.500,28523,2,PG,1,100,9958
1631709036.232826,171776.000,28523,2,PG,1,100,9968
1631709036.271235,171814.333,28540,3,PG,1,100,9963
1631709036.309643,171852.667,28540,3,PG,1,100,9946
1631709036.348051,171891.000,28540,3,PG,1,100,9931
1631709036.388631,171931.500,28558,2,PG,1,100,9920
1631709036.429210,171972.000,28558,2,PG,1,100,9934
1631709036.467284,172010.000,28577,3,PG,1,100,9938
1631709036.505359,172048.000,28577,3,PG,1,100,9944
1631709036.543433,172086.000,28577,3,PG,1,100,9948
1631709036.584513,172127.000,28596,2,PG,1,100,9963
1631709036.625594,172168.000,28596,2,PG,1,100,9967
1631709036.663334,172205.667,28615,3,PG,1,100,9975
1631709036.701075,172243.333,28615,3,PG,1,100,9982
1631709036.738815,172281.000,28615,3,PG,1,100,9984
1631709036.780396,172322.500,28631,2,PG,1,100,10004
1631709036.821978,172364.000,28631,2,PG,1,100,9992
1631709036.860052,172402.000,28650,3,PG,1,100,9995
1631709036.898126,172440.000,28650,3,PG,1,100,9989
1631709036.936201,172478.000,28650,3,PG,1,100,9953
1631709036.976780,172518.500,28668,2,PG,1,100,9915
1631709037.017359,172559.000,28668,2,PG,1,100,9892
1631709037.055100,172596.667,28687,3,PG,1,100,9871
1631709037.092840,172634.333,28687,3,PG,1,100,9865
1631709037.130581,172672.000,28687,3,PG,1,100,9867
1631709037.173999,172715.333,28703,3,PG,1,100,9867
1631709037.217417,172758.667,28703,3,PG,1,100,9864
1631709037.260835,172802.000,28703,3,PG,1,100,9862
1631709037.293399,172834.500,28722,2,PG,1,100,9866
1631709037.325962,172867.000,28722,2,PG,1,100,9872
1631709037.370049,172911.000,28740,3,PG,1,100,9876
1631709037.414135,172955.000,28740,3,PG,1,100,9886
1631709037.458221,172999.000,28740,3,PG,1,100,9891
1631709037.490784,173031.500,28760,2,PG,1,100,9901
1631709037.523348,173064.000,28760,2,PG,1,100,9901
1631709037.567100,173107.667,28778,3,PG,1,100,9891
1631709037.610852,173151.333,28778,3,PG,1,100,9871
1631709037.654605,173195.000,28778,3,PG,1,100,9857
1631709037.692345,173232.667,28795,3,PG,1,100,9856
1631709037.730086,173270.333,28795,3,PG,1,100,9850
1631709037.767826,173308.000,28795,3,PG,1,100,9847
1631709037.808906,173349.000,28813,2,PG,1,100,9841
1631709037.849987,173390.000,28813,2,PG,1,100,9844
1631709037.888061,173428.000,28832,3,PG,1,100,9853
1631709037.926135,173466.000,28832,3,PG,1,100,9858
1631709037.964210,173504.000,28832,3,PG,1,100,9858
1631709038.002618,173542.333,28855,3,PG,1,100,9870
1631709038.041027,173580.667,28855,3,PG,1,100,9875
1631709038.079435,173619.000,28855,3,PG,1,100,9867
1631709038.116841,173656.333,28874,3,PG,1,100,9874
1631709038.154248,173693.667,28874,3,PG,1,100,9886
1631709038.191654,173731.000,28874,3,PG,1,100,9895
1631709038.230062,173769.333,28890,3,PG,1,100,9889
1631709038.268471,173807.667,28890,3,PG,1,100,9865
1631709038.306879,173846.000,28890,3,PG,1,100,9843
1631709038.347960,173887.000,28909,2,PG,1,100,9831
1631709038.389040,173928.000,28909,2,PG,1,100,9836
1631709038.427782,173966.667,28927,3,PG,1,100,9831
1631709038.466525,174005.333,28927,3,PG,1,100,9836
1631709038.505267,174044.000,28927,3,PG,1,100,9846
1631709038.545846,174084.500,28947,2,PG,1,100,9855
1631709038.586426,174125.000,28947,2,PG,1,100,9861
1631709038.624500,174163.000,28965,3,PG,1,100,9875
1631709038.662575,174201.000,28965,3,PG,1,100,9881
1631709038.700649,174239.000,28965,3,PG,1,100,9889
1631709038.740727,174279.000,28982,2,PG,1,100,9909
1631709038.780806,174319.000,28982,2,PG,1,100,9923
1631709038.819214,174357.333,29000,3,PG,1,100,9928
1631709038.857622,174395.667,29000,3,PG,1,100,9938
1631709038.896031,174434.000,29000,3,PG,1,100,9944
1631709038.937111,174475.000,29019,2,PG,1,100,9946
1631709038.978191,174516.000,29019,2,PG,1,100,9915
1631709039.016600,174554.333,29037,3,PG,1,100,9897
1631709039.055008,174592.667,29037,3,PG,1,100,9894
1631709039.093416,174631.000,29037,3,PG,1,100,9905
1631709039.134497,174672.000,29054,2,PG,1,100,9902
1631709039.175577,174713.000,29054,2,PG,1,100,9907
1631709039.213651,174751.000,29072,3,PG,1,100,9902
1631709039.251726,174789.000,29072,3,PG,1,100,9906
1631709039.289800,174827.000,29072,3,PG,1,100,9928
1631709039.333218,174870.333,29091,3,PG,1,100,9935
1631709039.376637,174913.667,29091,3,PG,1,100,9938
1631709039.420055,174957.000,29091,3,PG,1,100,9957
1631709039.453119,174990.000,29110,2,PG,1,100,9972
1631709039.486184,175023.000,29110,2,PG,1,100,9976
1631709039.529936,175066.667,29127,3,PG,1,100,9968
1631709039.573688,175110.333,29127,3,PG,1,100,9972
1631709039.617440,175154.000,29127,3,PG,1,100,9970
1631709039.650505,175187.000,29145,2,PG,1,100,9954
1631709039.683570,175220.000,29145,2,PG,1,100,9939
1631709039.726654,175263.000,29164,3,PG,1,100,9930
1631709039.769738,175306.000,29164,3,PG,1,100,9915
1631709039.812822,175349.000,29164,3,PG,1,100,9903
1631709039.850897,175387.000,29182,3,PG,1,100,9889
1631709039.888971,175425.000,29182,3,PG,1,100,9871
1631709039.927046,175463.000,29182,3,PG,1,100,9858
1631709039.968126,175504.000,29201,2,PG,1,100,9850
1631709040.009206,175545.000,29201,2,PG,1,100,9847
1631709040.047615,175583.333,29217,3,PG,1,100,9835
1631709040.086023,175621.667,29217,3,PG,1,100,9834
1631709040.124431,175660.000,29217,3,PG,1,100,9829
1631709040.165512,175701.000,29236,2,PG,1,100,9818
1631709040.206592,175742.000,29236,2,PG,1,100,9795
1631709040.245000,175780.333,29254,3,PG,1,100,9756
1631709040.283409,175818.667,29254,3,PG,1,100,9713
1631709040.321817,175857.000,29254,3,PG,1,100,9684
1631709040.359891,175895.000,29273,3,PG,1,100,9664
1631709040.397966,175933.000,29273,3,PG,1,100,9650
1631709040.436040,175971.000,29273,3,PG,1,100,9648
1631709040.476619,176011.500,29290,2,PG,1,100,9637
1631709040.517199,176052.000,29290,2,PG,1,100,9629
1631709040.555607,176090.333,29309,3,PG,1,100,9632
1631709040.594016,176128.667,29309,3,PG,1,100,9628
1631709040.632424,176167.000,29309,3,PG,1,100,9627
1631709040.673003,176207.500,29327,2,PG,1,100,9627
1631709040.713583,176248.000,29327,2,PG,1,100,9629
1631709040.751991,176286.333,29346,3,PG,1,100,9619
1631709040.790399,176324.667,29346,3,PG,1,100,9610
1631709040.828808,176363.000,29346,3,PG,1,100,9578
1631709040.869387,176403.500,29364,2,PG,1,100,9538
1631709040.909966,176444.000,29364,2,PG,1,100,9508
1631709040.948375,176482.333,29381,3,PG,1,100,9466
1631709040.986783,176520.667,29381,3,PG,1,100,9438
1631709041.025192,176559.000,29381,3,PG,1,100,9418
1631709041.063266,176597.000,29399,3,PG,1,100,9405
1631709041.101340,176635.000,29399,3,PG,1,100,9389
1631709041.139415,176673.000,29399,3,PG,1,100,9376
1631709041.180996,176714.500,29418,2,PG,1,100,9367
1631709041.222577,176756.000,29418,2,PG,1,100,9363
1631709041.260652,176794.000,29436,3,PG,1,100,9352
1631709041.298726,176832.000,29436,3,PG,1,100,9351
1631709041.336801,176870.000,29436,3,PG,1,100,9358
1631709041.377380,176910.500,29453,2,PG,1,100,9344
1631709041.417959,176951.000,29453,2,PG,1,100,9325
1631709041.456033,176989.000,29472,3,PG,1,100,9284
1631709041.494108,177027.000,29472,3,PG,1,100,9255
1631709041.532182,177065.000,29472,3,PG,1,100,9220
1631709041.573263,177106.000,29491,2,PG,1,100,9199
1631709041.614343,177147.000,29491,2,PG,1,100,9192
1631709041.652417,177185.000,29509,3,PG,1,100,9189
1631709041.690492,177223.000,29509,3,PG,1,100,9180
1631709041.728566,177261.000,29509,3,PG,1,100,9169
1631709041.770147,177302.500,29526,2,PG,1,100,9170
1631709041.811729,177344.000,29526,2,PG,1,100,9173
1631709041.849469,177381.667,29544,3,PG,1,100,9187
1631709041.887209,177419.333,29544,3,PG,1,100,9196
1631709041.924950,177457.000,29544,3,PG,1,100,9202
1631709041.968702,177500.667,29563,3,PG,1,100,9198
1631709042.012454,177544.333,29563,3,PG,1,100,9180
1631709042.056206,177588.000,29563,3,PG,1,100,9156
1631709042.089271,177621.000,29581,2,PG,1,100,9133
1631709042.122336,177654.000,29581,2,PG,1,100,9125
1631709042.165420,177697.000,29600,3,PG,1,100,9122
1631709042.208504,177740.000,29600,3,PG,1,100,9113
1631709042.251588,177783.000,29600,3,PG,1,100,9115
1631709042.284152,177815.500,29616,2,PG,1,100,9116
1631709042.316715,177848.000,29616,2,PG,1,100,9117
1631709042.360468,177891.667,29635,3,PG,1,100,9137
1631709042.404220,177935.333,29635,3,PG,1,100,9143
1631709042.447972,177979.000,29635,3,PG,1,100,9151
1631709042.485713,178016.667,29654,3,PG,1,100,9158
1631709042.523453,178054.333,29654,3,PG,1,100,9174
1631709042.561193,178092.000,29654,3,PG,1,100,9162
1631709042.602273,178133.000,29673,2,PG,1,100,9141
1631709042.643354,178174.000,29673,2,PG,1,100,9127
1631709042.681428,178212.000,29689,3,PG,1,100,9117
1631709042.719503,178250.000,29689,3,PG,1,100,9122
1631709042.757577,178288.000,29689,3,PG,1,100,9132
1631709042.799158,178329.500,29708,2,PG,1,100,9135
1631709042.840739,178371.000,29708,2,PG,1,100,9141
1631709042.879148,178409.333,29726,3,PG,1,100,9154
1631709042.917556,178447.667,29726,3,PG,1,100,9162
1631709042.955965,178486.000,29726,3,PG,1,100,9182
1631709042.993705,178523.667,29745,3,PG,1,100,9195
1631709043.031446,178561.333,29745,3,PG,1,100,9209
1631709043.069186,178599.000,29745,3,PG,1,100,9222
1631709043.110016,178639.750,29769,4,PG,1,100,9216
1631709043.150846,178680.500,29769,4,PG,1,100,9205
1631709043.191675,178721.250,29769,4,PG,1,100,9189
1631709043.232505,178762.000,29769,4,PG,1,100,9180
1631709043.265069,178794.500,29787,2,PG,1,100,9175
1631709043.297632,178827.000,29787,2,PG,1,100,9173
1631709043.341385,178870.667,29806,3,PG,1,100,9173
1631709043.385137,178914.333,29806,3,PG,1,100,9171
1631709043.428889,178958.000,29806,3,PG,1,100,9172
1631709043.466629,178995.667,29823,3,PG,1,100,9181
1631709043.504370,179033.333,29823,3,PG,1,100,9191
1631709043.542110,179071.000,29823,3,PG,1,100,9194
1631709043.583190,179112.000,29842,2,PG,1,100,9202
1631709043.624271,179153.000,29842,2,PG,1,100,9215
1631709043.662345,179191.000,29860,3,PG,1,100,9216
1631709043.700420,179229.000,29860,3,PG,1,100,9203
1631709043.738494,179267.000,29860,3,PG,1,100,9178
1631709043.776234,179304.667,29879,3,PG,1,100,9173
1631709043.813975,179342.333,29879,3,PG,1,100,9164
1631709043.851715,179380.000,29879,3,PG,1,100,9149
1631709043.892796,179421.000,29897,2,PG,1,100,9153
1631709043.933876,179462.000,29897,2,PG,1,100,9154
1631709043.971950,179500.000,29914,3,PG,1,100,9165
1631709044.010025,179538.000,29914,3,PG,1,100,9173
1631709044.048099,179576.000,29914,3,PG,1,100,9174
1631709044.089179,179617.000,29932,2,PG,1,100,9185
1631709044.130260,179658.000,29932,2,PG,1,100,9198
1631709044.168000,179695.667,29951,3,PG,1,100,9215
1631709044.205740,179733.333,29951,3,PG,1,100,9226
1631709044.243481,179771.000,29951,3,PG,1,100,9216
1631709044.281555,179809.000,29969,3,PG,1,100,9196
1631709044.319630,179847.000,29969,3,PG,1,100,9181
1631709044.357704,179885.000,29969,3,PG,1,100,9167
1631709044.398784,179926.000,29987,2,PG,1,100,9176
1631709044.439865,179967.000,29987,2,PG,1,100,9172
1631709044.477939,180005.000,30005,3,PG,1,100,9185
1631709044.516013,180043.000,30005,3,PG,1,100,9192
1631709044.554088,180081.000,30005,3,PG,1,100,9199
1631709044.595168,180122.000,30024,2,PG,1,100,9207
1631709044.636248,180163.000,30024,2,PG,1,100,9212
1631709044.674323,180201.000,30042,3,PG,1,100,9228
1631709044.712397,180239.000,30042,3,PG,1,100,9245
1631709044.750472,180277.000,30042,3,PG,1,100,9258
1631709044.788212,180314.667,30061,3,PG,1,100,9250
1631709044.825953,180352.333,30061,3,PG,1,100,9235
1631709044.863693,180390.000,30061,3,PG,1,100,9217
1631709044.904773,180431.000,30077,2,PG,1,100,9209
1631709044.945853,180472.000,30077,2,PG,1,100,9197
1631709044.984262,180510.333,30096,3,PG,1,100,9196
1631709045.022670,180548.667,30096,3,PG,1,100,9198
1631709045.061079,180587.000,30096,3,PG,1,100,9200
1631709045.101658,180627.500,30114,2,PG,1,100,9206
1631709045.142237,180668.000,30114,2,PG,1,100,9211
1631709045.180646,180706.333,30133,3,PG,1,100,9223
1631709045.219054,180744.667,30133,3,PG,1,100,9232
1631709045.257463,180783.000,30133,3,PG,1,100,9243
1631709045.298543,180824.000,30149,2,PG,1,100,9247
1631709045.339623,180865.000,30149,2,PG,1,100,9261
1631709045.377363,180902.667,30169,3,PG,1,100,9265
1631709045.415104,180940.333,30169,3,PG,1,100,9257
1631709045.452844,180978.000,30169,3,PG,1,100,9229
1631709045.493924,181019.000,30187,2,PG,1,100,9198
1631709045.535005,181060.000,30187,2,PG,1,100,9178
1631709045.573413,181098.333,30206,3,PG,1,100,9172
1631709045.611822,181136.667,30206,3,PG,1,100,9165
1631709045.650230,181175.000,30206,3,PG,1,100,9160
1631709045.690809,181215.500,30224,2,PG,1,100,9159
1631709045.731389,181256.000,30224,2,PG,1,100,9158
1631709045.769797,181294.333,30241,3,PG,1,100,9161
1631709045.808205,181332.667,30241,3,PG,1,100,9166
1631709045.846614,181371.000,30241,3,PG,1,100,9183
1631709045.889698,181414.000,30259,3,PG,1,100,9176
1631709045.932782,181457.000,30259,3,PG,1,100,9191
1631709045.975866,181500.000,30259,3,PG,1,100,9199
1631709046.008931,181533.000,30278,2,PG,1,100,9187
1631709046.041996,181566.000,30278,2,PG,1,100,9162
1631709046.085748,181609.667,30296,3,PG,1,100,9133
1631709046.129500,181653.333,30296,3,PG,1,100,9119
1631709046.173252,181697.000,30296,3,PG,1,100,9118
1631709046.205816,181729.500,30313,2,PG,1,100,9114
1631709046.238379,181762.000,30313,2,PG,1,100,9111
1631709046.282131,181805.667,30331,3,PG,1,100,9110
1631709046.325884,181849.333,30331,3,PG,1,100,9117
1631709046.369636,181893.000,30331,3,PG,1,100,9124
1631709046.407710,181931.000,30351,3,PG,1,100,9125
1631709046.445785,181969.000,30351,3,PG,1,100,9133
1631709046.483859,182007.000,30351,3,PG,1,100,9133
1631709046.524939,182048.000,30369,2,PG,1,100,9154
1631709046.566020,182089.000,30369,2,PG,1,100,9168
1631709046.604762,182127.667,30386,3,PG,1,100,9164
1631709046.643504,182166.333,30386,3,PG,1,100,9150
1631709046.682247,182205.000,30386,3,PG,1,100,9127
1631709046.722325,182245.000,30404,2,PG,1,100,9105
1631709046.762403,182285.000,30404,2,PG,1,100,9091
1631709046.800478,182323.000,30423,3,PG,1,100,9087
1631709046.838552,182361.000,30423,3,PG,1,100,9094
1631709046.876627,182399.000,30423,3,PG,1,100,9106
1631709046.914367,182436.667,30441,3,PG,1,100,9101
1631709046.952107,182474.333,30441,3,PG,1,100,9106
1631709046.989848,182512.000,30441,3,PG,1,100,9112
1631709047.030928,182553.000,30460,2,PG,1,100,9118
1631709047.072008,182594.000,30460,2,PG,1,100,9133
1631709047.110083,182632.000,30476,3,PG,1,100,9134
1631709047.148157,182670.000,30476,3,PG,1,100,9144
1631709047.186232,182708.000,30476,3,PG,1,100,9141
1631709047.227813,182749.500,30495,2,PG,1,100,9122
1631709047.269394,182791.000,30495,2,PG,1,100,9083
1631709047.307469,182829.000,30514,3,PG,1,100,9045
1631709047.345543,182867.000,30514,3,PG,1,100,9023
1631709047.383617,182905.000,30514,3,PG,1,100,9008
1631709047.422026,182943.333,30533,3,PG,1,100,9001
1631709047.460434,182981.667,30533,3,PG,1,100,8988
1631709047.498842,183020.000,30533,3,PG,1,100,8979
1631709047.538921,183060.000,30549,2,PG,1,100,8960
1631709047.578999,183100.000,30549,2,PG,1,100,8955
1631709047.617408,183138.333,30568,3,PG,1,100,8944
1631709047.655816,183176.667,30568,3,PG,1,100,8948
1631709047.694224,183215.000,30568,3,PG,1,100,8952
1631709047.734804,183255.500,30586,2,PG,1,100,8954
1631709047.775383,183296.000,30586,2,PG,1,100,8957
1631709047.813791,183334.333,30605,3,PG,1,100,8932
1631709047.852200,183372.667,30605,3,PG,1,100,8901
1631709047.890608,183411.000,30605,3,PG,1,100,8870
1631709047.934026,183454.333,30623,3,PG,1,100,8848
1631709047.977445,183497.667,30623,3,PG,1,100,8847
1631709048.020863,183541.000,30623,3,PG,1,100,8836
1631709048.053927,183574.000,30640,2,PG,1,100,8824
1631709048.086992,183607.000,30640,2,PG,1,100,8813
1631709048.130744,183650.667,30658,3,PG,1,100,8806
1631709048.174496,183694.333,30658,3,PG,1,100,8800
1631709048.218248,183738.000,30658,3,PG,1,100,8792
1631709048.256657,183776.333,30682,3,PG,1,100,8797
1631709048.295065,183814.667,30682,3,PG,1,100,8795
1631709048.333474,183853.000,30682,3,PG,1,100,8796
1631709048.371548,183891.000,30701,3,PG,1,100,8799
1631709048.409622,183929.000,30701,3,PG,1,100,8777
1631709048.447697,183967.000,30701,3,PG,1,100,8752
1631709048.488777,184008.000,30720,2,PG,1,100,8736
1631709048.529857,184049.000,30720,2,PG,1,100,8735
1631709048.569936,184089.000,30736,2,PG,1,100,8749
1631709048.610014,184129.000,30736,2,PG,1,100,8755
1631709048.653098,184172.000,30755,3,PG,1,100,8781
1631709048.696182,184215.000,30755,3,PG,1,100,8792
1631709048.739267,184258.000,30755,3,PG,1,100,8805
1631709048.779345,184298.000,30773,2,PG,1,100,8810
1631709048.819423,184338.000,30773,2,PG,1,100,8834
1631709048.858500,184377.000,30792,3,PG,1,100,8839
1631709048.897576,184416.000,30792,3,PG,1,100,8853
1631709048.936652,184455.000,30792,3,PG,1,100,8851
1631709048.985247,184503.500,30810,2,PG,1,100,8835
1631709049.033842,184552.000,30810,2,PG,1,100,8846
1631709049.071917,184590.000,30827,3,PG,1,100,8849
1631709049.109991,184628.000,30827,3,PG,1,100,8857
1631709049.148066,184666.000,30827,3,PG,1,100,8870
1631709049.188645,184706.500,30845,2,PG,1,100,8889
1631709049.229224,184747.000,30845,2,PG,1,100,8913
1631709049.270805,184788.500,30865,2,PG,1,100,8918
1631709049.312387,184830.000,30865,2,PG,1,100,8926
1631709049.356473,184874.000,30883,3,PG,1,100,8934
1631709049.400559,184918.000,30883,3,PG,1,100,8951
1631709049.444645,184962.000,30883,3,PG,1,100,8961
1631709049.485725,185003.000,30900,2,PG,1,100,8970
1631709049.526806,185044.000,30900,2,PG,1,100,8958
1631709049.569890,185087.000,30918,3,PG,1,100,8957
1631709049.612974,185130.000,30918,3,PG,1,100,8949
1631709049.656058,185173.000,30918,3,PG,1,100,8954
1631709049.696638,185213.500,30937,2,PG,1,100,8970
1631709049.737217,185254.000,30937,2,PG,1,100,8985
1631709049.778297,185295.000,30955,2,PG,1,100,8987
1631709049.819377,185336.000,30955,2,PG,1,100,8990
1631709049.863798,185380.333,30974,3,PG,1,100,9000
1631709049.908218,185424.667,30974,3,PG,1,100,9008
1631709049.952638,185469.000,30974,3,PG,1,100,9011
1631709049.992716,185509.000,30990,2,PG,1,100,9024
1631709050.032794,185549.000,30990,2,PG,1,100,9026
1631709050.076213,185592.333,31009,3,PG,1,100,9033
1631709050.119631,185635.667,31009,3,PG,1,100,9028
1631709050.163049,185679.000,31009,3,PG,1,100,9028
1631709050.204129,185720.000,31027,2,PG,1,100,9029
1631709050.245210,185761.000,31027,2,PG,1,100,9038
1631709050.285789,185801.500,31047,2,PG,1,100,9044
1631709050.326368,185842.000,31047,2,PG,1,100,9045
1631709050.369787,185885.333,31063,3,PG,1,100,9050
1631709050.413205,185928.667,31063,3,PG,1,100,9045
1631709050.456623,185972.000,31063,3,PG,1,100,9041
1631709050.498204,186013.500,31082,2,PG,1,100,9033
1631709050.539785,186055.000,31082,2,PG,1,100,9035
1631709050.583204,186098.333,31100,3,PG,1,100,9034
1631709050.626622,186141.667,31100,3,PG,1,100,9029
1631709050.670040,186185.000,31100,3,PG,1,100,9024
1631709050.711120,186226.000,31119,2,PG,1,100,9010
1631709050.752200,186267.000,31119,2,PG,1,100,8981
1631709050.790275,186305.000,31135,3,PG,1,100,8970
1631709050.828349,186343.000,31135,3,PG,1,100,8970
1631709050.866424,186381.000,31135,3,PG,1,100,8958
1631709050.915519,186430.000,31154,2,PG,1,100,8960
1631709050.964616,186479.000,31154,2,PG,1,100,8960
1631709051.003024,186517.333,31172,3,PG,1,100,8958
1631709051.041432,186555.667,31172,3,PG,1,100,8953
1631709051.079841,186594.000,31172,3,PG,1,100,8957
1631709051.120921,186635.000,31191,2,PG,1,100,8958
1631709051.162001,186676.000,31191,2,PG,1,100,8964
1631709051.211097,186725.000,31209,2,PG,1,100,8957
1631709051.260193,186774.000,31209,2,PG,1,100,8950
1631709051.297934,186811.667,31227,3,PG,1,100,8926
1631709051.335674,186849.333,31227,3,PG,1,100,8898
1631709051.373414,186887.000,31227,3,PG,1,100,8874
1631709051.416499,186930.000,31245,3,PG,1,100,8860
1631709051.459583,186973.000,31245,3,PG,1,100,8859
1631709051.502667,187016.000,31245,3,PG,1,100,8847
1631709051.544749,187058.000,31264,2,PG,1,100,8841
1631709051.586831,187100.000,31264,2,PG,1,100,8829
1631709051.627912,187141.000,31282,2,PG,1,100,8826
1631709051.668992,187182.000,31282,2,PG,1,100,8827
1631709051.712744,187225.667,31301,3,PG,1,100,8822
1631709051.756496,187269.333,31301,3,PG,1,100,8832
1631709051.800248,187313.000,31301,3,PG,1,100,8832
1631709051.840828,187353.500,31317,2,PG,1,100,8835
1631709051.881407,187394.000,31317,2,PG,1,100,8818
1631709051.924491,187437.000,31336,3,PG,1,100,8787
1631709051.967576,187480.000,31336,3,PG,1,100,8759
1631709052.010660,187523.000,31336,3,PG,1,100,8746
1631709052.050237,187562.500,31354,2,PG,1,100,8735
1631709052.089814,187602.000,31354,2,PG,1,100,8723
1631709052.131897,187644.000,31373,2,PG,1,100,8715
1631709052.173979,187686.000,31373,2,PG,1,100,8717
1631709052.217731,187729.667,31390,3,PG,1,100,8718
1631709052.261483,187773.333,31390,3,PG,1,100,8721
1631709052.305235,187817.000,31390,3,PG,1,100,8723
1631709052.346316,187858.000,31409,2,PG,1,100,8728
1631709052.387396,187899.000,31409,2,PG,1,100,8733
1631709052.430146,187941.667,31427,3,PG,1,100,8748
1631709052.472896,187984.333,31427,3,PG,1,100,8754
1631709052.515646,188027.000,31427,3,PG,1,100,8754
1631709052.556226,188067.500,31446,2,PG,1,100,8743
1631709052.596805,188108.000,31446,2,PG,1,100,8739
1631709052.637885,188149.000,31464,2,PG,1,100,8728
1631709052.678966,188190.000,31464,2,PG,1,100,8722
1631709052.723052,188234.000,31481,3,PG,1,100,8728
1631709052.767138,188278.000,31481,3,PG,1,100,8725
1631709052.811224,188322.000,31481,3,PG,1,100,8727
1631709052.851302,188362.000,31499,2,PG,1,100,8729
1631709052.891381,188402.000,31499,2,PG,1,100,8742
1631709052.935133,188445.667,31518,3,PG,1,100,8754
1631709052.978885,188489.333,31518,3,PG,1,100,8781
1631709053.022637,188533.000,31518,3,PG,1,100,8800
1631709053.063718,188574.000,31536,2,PG,1,100,8809
1631709053.104798,188615.000,31536,2,PG,1,100,8821
1631709053.143540,188653.667,31553,3,PG,1,100,8816
1631709053.182283,188692.333,31553,3,PG,1,100,8813
1631709053.221025,188731.000,31553,3,PG,1,100,8807
1631709053.261604,188771.500,31572,2,PG,1,100,8795
1631709053.302184,188812.000,31572,2,PG,1,100,8790
1631709053.342763,188852.500,31594,4,PG,1,100,8787
1631709053.383342,188893.000,31594,4,PG,1,100,8782
1631709053.423922,188933.500,31594,4,PG,1,100,8780
1631709053.464501,188974.000,31594,4,PG,1,100,8785
1631709053.508253,189017.667,31613,3,PG,1,100,8799
1631709053.552005,189061.333,31613,3,PG,1,100,8801
1631709053.595757,189105.000,31613,3,PG,1,100,8810
1631709053.636838,189146.000,31631,2,PG,1,100,8821
1631709053.677918,189187.000,31631,2,PG,1,100,8833
1631709053.718998,189228.000,31650,2,PG,1,100,8828
1631709053.760078,189269.000,31650,2,PG,1,100,8812
1631709053.803497,189312.333,31668,3,PG,1,100,8804
1631709053.846915,189355.667,31668,3,PG,1,100,8790
1631709053.890333,189399.000,31668,3,PG,1,100,8800
1631709053.928407,189437.000,31685,3,PG,1,100,8791
1631709053.966482,189475.000,31685,3,PG,1,100,8795
1631709054.004556,189513.000,31685,3,PG,1,100,8796
1631709054.054153,189562.500,31703,2,PG,1,100,8806
1631709054.103750,189612.000,31703,2,PG,1,100,8811
1631709054.143828,189652.000,31722,2,PG,1,100,8816
1631709054.183907,189692.000,31722,2,PG,1,100,8813
1631709054.222649,189730.667,31741,3,PG,1,100,8835
1631709054.261391,189769.333,31741,3,PG,1,100,8840
1631709054.300134,189808.000,31741,3,PG,1,100,8854
1631709054.340713,189848.500,31760,2,PG,1,100,8849
1631709054.381292,189889.000,31760,2,PG,1,100,8839
1631709054.424711,189932.333,31776,3,PG,1,100,8828
1631709054.468129,189975.667,31776,3,PG,1,100,8818
1631709054.511547,190019.000,31776,3,PG,1,100,8803
1631709054.552627,190060.000,31795,2,PG,1,100,8794
1631709054.593708,190101.000,31795,2,PG,1,100,8788
1631709054.636792,190144.000,31813,3,PG,1,100,8792
1631709054.679876,190187.000,31813,3,PG,1,100,8800
1631709054.722960,190230.000,31813,3,PG,1,100,8791
1631709054.764541,190271.500,31832,2,PG,1,100,8796
1631709054.806123,190313.000,31832,2,PG,1,100,8813
1631709054.844531,190351.333,31848,3,PG,1,100,8834
1631709054.882939,190389.667,31848,3,PG,1,100,8847
1631709054.921348,190428.000,31848,3,PG,1,100,8857
1631709054.970444,190477.000,31867,2,PG,1,100,8858
1631709055.019540,190526.000,31867,2,PG,1,100,8855
1631709055.057280,190563.667,31885,3,PG,1,100,8852
1631709055.095021,190601.333,31885,3,PG,1,100,8845
1631709055.132761,190639.000,31885,3,PG,1,100,8842
1631709055.174342,190680.500,31905,2,PG,1,100,8838
1631709055.215924,190722.000,31905,2,PG,1,100,8835
1631709055.256503,190762.500,31923,2,PG,1,100,8835
1631709055.297082,190803.000,31923,2,PG,1,100,8839
1631709055.341168,190847.000,31940,3,PG,1,100,8833
1631709055.385254,190891.000,31940,3,PG,1,100,8836
1631709055.429341,190935.000,31940,3,PG,1,100,8842
1631709055.470421,190976.000,31958,2,PG,1,100,8843
1631709055.511501,191017.000,31958,2,PG,1,100,8843
1631709055.551579,191057.000,31977,2,PG,1,100,8854
1631709055.591658,191097.000,31977,2,PG,1,100,8853
1631709055.635410,191140.667,31995,3,PG,1,100,8835
1631709055.679162,191184.333,31995,3,PG,1,100,8812
1631709055.722914,191228.000,31995,3,PG,1,100,8778
1631709055.761323,191266.333,32012,3,PG,1,100,8756
1631709055.799731,191304.667,32012,3,PG,1,100,8744
1631709055.838140,191343.000,32012,3,PG,1,100,8724
1631709055.887736,191392.500,32030,2,PG,1,100,8721
1631709055.937333,191442.000,32030,2,PG,1,100,8723
1631709055.977412,191482.000,32049,2,PG,1,100,8714
1631709056.017490,191522.000,32049,2,PG,1,100,8704
1631709056.055898,191560.333,32067,3,PG,1,100,8692
1631709056.094307,191598.667,32067,3,PG,1,100,8699
1631709056.132715,191637.000,32067,3,PG,1,100,8719
1631709056.173795,191678.000,32087,2,PG,1,100,8722
1631709056.214876,191719.000,32087,2,PG,1,100,8701
1631709056.257960,191762.000,32103,3,PG,1,100,8672
1631709056.301044,191805.000,32103,3,PG,1,100,8640
1631709056.344128,191848.000,32103,3,PG,1,100,8621
1631709056.384708,191888.500,32122,2,PG,1,100,8594
1631709056.425287,191929.000,32122,2,PG,1,100,8587
1631709056.463695,191967.333,32140,3,PG,1,100,8565
1631709056.502104,192005.667,32140,3,PG,1,100,8542
1631709056.540512,192044.000,32140,3,PG,1,100,8531
1631709056.581592,192085.000,32159,2,PG,1,100,8518
1631709056.622673,192126.000,32159,2,PG,1,100,8505
1631709056.666091,192169.333,32175,3,PG,1,100,8506
1631709056.709509,192212.667,32175,3,PG,1,100,8504
1631709056.752927,192256.000,32175,3,PG,1,100,8477
1631709056.794008,192297.000,32194,2,PG,1,100,8429
1631709056.835088,192338.000,32194,2,PG,1,100,8388
1631709056.873162,192376.000,32212,3,PG,1,100,8361
1631709056.911237,192414.000,32212,3,PG,1,100,8329
1631709056.949311,192452.000,32212,3,PG,1,100,8311
1631709056.987385,192490.000,32231,3,PG,1,100,8298
1631709057.025460,192528.000,32231,3,PG,1,100,8294
1631709057.063534,192566.000,32231,3,PG,1,100,8287
1631709057.104614,192607.000,32249,2,PG,1,100,8291
1631709057.145695,192648.000,32249,2,PG,1,100,8282
1631709057.186775,192689.000,32267,2,PG,1,100,8284
1631709057.227855,192730.000,32267,2,PG,1,100,8304
1631709057.270940,192773.000,32285,3,PG,1,100,8305
1631709057.314024,192816.000,32285,3,PG,1,100,8326
1631709057.357108,192859.000,32285,3,PG,1,100,8319
1631709057.395182,192897.000,32304,3,PG,1,100,8319
1631709057.433257,192935.000,32304,3,PG,1,100,8344
1631709057.471331,192973.000,32304,3,PG,1,100,8374
1631709057.512912,193014.500,32322,2,PG,1,100,8394
1631709057.554494,193056.000,32322,2,PG,1,100,8398
1631709057.598246,193099.667,32341,3,PG,1,100,8421
1631709057.641998,193143.333,32341,3,PG,1,100,8438
1631709057.685750,193187.000,32341,3,PG,1,100,8439
1631709057.726329,193227.500,32357,2,PG,1,100,8454
1631709057.766909,193268.000,32357,2,PG,1,100,8470
1631709057.805317,193306.333,32376,3,PG,1,100,8476
1631709057.843725,193344.667,32376,3,PG,1,100,8471
1631709057.882134,193383.000,32376,3,PG,1,100,8451
1631709057.923214,193424.000,32394,2,PG,1,100,8440
1631709057.964294,193465.000,32394,2,PG,1,100,8426
1631709058.007713,193508.333,32413,3,PG,1,100,8405
1631709058.051131,193551.667,32413,3,PG,1,100,8402
1631709058.094549,193595.000,32413,3,PG,1,100,8420
1631709058.135128,193635.500,32432,2,PG,1,100,8440
1631709058.175708,193676.000,32432,2,PG,1,100,8439
1631709058.214450,193714.667,32449,3,PG,1,100,8436
1631709058.253192,193753.333,32449,3,PG,1,100,8458
1631709058.291935,193792.000,32449,3,PG,1,100,8472
1631709058.332013,193832.000,32467,2,PG,1,100,8478
1631709058.372091,193872.000,32467,2,PG,1,100,8465
1631709058.415176,193915.000,32486,3,PG,1,100,8455
1631709058.458260,193958.000,32486,3,PG,1,100,8451
1631709058.501344,194001.000,32486,3,PG,1,100,8443
1631709058.540086,194039.667,32510,3,PG,1,100,8425
1631709058.578829,194078.333,32510,3,PG,1,100,8406
1631709058.617571,194117.000,32510,3,PG,1,100,8397
1631709058.661657,194161.000,32528,3,PG,1,100,8390
1631709058.705743,194205.000,32528,3,PG,1,100,8396
1631709058.749830,194249.000,32528,3,PG,1,100,8406
1631709058.789908,194289.000,32547,2,PG,1,100,8410
1631709058.829986,194329.000,32547,2,PG,1,100,8415
1631709058.868395,194367.333,32563,3,PG,1,100,8423
1631709058.906803,194405.667,32563,3,PG,1,100,8422
1631709058.945211,194444.000,32563,3,PG,1,100,8432
1631709058.985791,194484.500,32582,2,PG,1,100,8435
1631709059.026370,194525.000,32582,2,PG,1,100,8435
1631709059.070122,194568.667,32601,3,PG,1,100,8448
1631709059.113874,194612.333,32601,3,PG,1,100,8446
1631709059.157627,194656.000,32601,3,PG,1,100,8452
1631709059.198206,194696.500,32620,2,PG,1,100,8463
1631709059.238785,194737.000,32620,2,PG,1,100,8475
1631709059.277194,194775.333,32636,3,PG,1,100,8487
1631709059.315602,194813.667,32636,3,PG,1,100,8476
1631709059.354010,194852.000,32636,3,PG,1,100,8482
1631709059.394590,194892.500,32655,2,PG,1,100,8476
1631709059.435169,194933.000,32655,2,PG,1,100,8466
1631709059.478587,194976.333,32673,3,PG,1,100,8449
1631709059.522005,195019.667,32673,3,PG,1,100,8451
1631709059.565423,195063.000,32673,3,PG,1,100,8445
1631709059.606003,195103.500,32692,2,PG,1,100,8441
1631709059.646582,195144.000,32692,2,PG,1,100,8441
1631709059.687662,195185.000,32708,2,PG,1,100,8445
1631709059.728743,195226.000,32708,2,PG,1,100,8454
1631709059.772829,195270.000,32727,3,PG,1,100,8458
1631709059.816915,195314.000,32727,3,PG,1,100,8476
1631709059.861001,195358.000,32727,3,PG,1,100,8485
1631709059.901580,195398.500,32745,2,PG,1,100,8476
1631709059.942160,195439.000,32745,2,PG,1,100,8459
1631709059.980234,195477.000,32764,3,PG,1,100,8446
1631709060.018308,195515.000,32764,3,PG,1,100,8435
1631709060.056383,195553.000,32764,3,PG,1,100,8435
1631709060.096962,195593.500,32783,2,PG,1,100,8428
1631709060.137542,195634.000,32783,2,PG,1,100,8418
1631709060.181294,195677.667,32800,3,PG,1,100,8422
1631709060.225046,195721.333,32800,3,PG,1,100,8420
1631709060.268798,195765.000,32800,3,PG,1,100,8416
1631709060.310379,195806.500,32818,2,PG,1,100,8424
1631709060.351960,195848.000,32818,2,PG,1,100,8426
1631709060.392540,195888.500,32837,2,PG,1,100,8420
1631709060.433119,195929.000,32837,2,PG,1,100,8429
1631709060.476871,195972.667,32855,3,PG,1,100,8424
1631709060.520623,196016.333,32855,3,PG,1,100,8425
1631709060.564376,196060.000,32855,3,PG,1,100,8407
1631709060.602450,196098.000,32872,3,PG,1,100,8409
1631709060.640524,196136.000,32872,3,PG,1,100,8400
1631709060.678599,196174.000,32872,3,PG,1,100,8384
1631709060.719679,196215.000,32890,2,PG,1,100,8376
1631709060.760759,196256.000,32890,2,PG,1,100,8375
1631709060.801840,196297.000,32909,2,PG,1,100,8372
1631709060.842920,196338.000,32909,2,PG,1,100,8376
1631709060.886672,196381.667,32927,3,PG,1,100,8379
1631709060.930424,196425.333,32927,3,PG,1,100,8376
1631709060.974176,196469.000,32927,3,PG,1,100,8378
1631709061.014255,196509.000,32946,2,PG,1,100,8386
1631709061.054333,196549.000,32946,2,PG,1,100,8393
1631709061.092741,196587.333,32963,3,PG,1,100,8410
1631709061.131150,196625.667,32963,3,PG,1,100,8411
1631709061.169558,196664.000,32963,3,PG,1,100,8411
1631709061.217652,196712.000,32982,2,PG,1,100,8407
1631709061.265746,196760.000,32982,2,PG,1,100,8404
1631709061.304489,196798.667,33000,3,PG,1,100,8401
1631709061.343231,196837.333,33000,3,PG,1,100,8398
1631709061.381974,196876.000,33000,3,PG,1,100,8404
1631709061.423054,196917.000,33019,2,PG,1,100,8412
1631709061.464134,196958.000,33019,2,PG,1,100,8415
1631709061.504713,196998.500,33035,2,PG,1,100,8412
1631709061.545293,197039.000,33035,2,PG,1,100,8419
1631709061.588711,197082.333,33054,3,PG,1,100,8421
1631709061.632129,197125.667,33054,3,PG,1,100,8426
1631709061.675547,197169.000,33054,3,PG,1,100,8428
1631709061.713955,197207.333,33072,3,PG,1,100,8438
1631709061.752364,197245.667,33072,3,PG,1,100,8441
1631709061.790772,197284.000,33072,3,PG,1,100,8429
1631709061.831853,197325.000,33091,2,PG,1,100,8429
1631709061.872933,197366.000,33091,2,PG,1,100,8414
1631709061.914013,197407.000,33107,2,PG,1,100,8408
1631709061.955093,197448.000,33107,2,PG,1,100,8411
1631709061.998846,197491.667,33127,3,PG,1,100,8411
1631709062.042598,197535.333,33127,3,PG,1,100,8410
1631709062.086350,197579.000,33127,3,PG,1,100,8409
1631709062.127430,197620.000,33145,2,PG,1,100,8409
1631709062.168510,197661.000,33145,2,PG,1,100,8415
1631709062.212263,197704.667,33164,3,PG,1,100,8414
1631709062.256015,197748.333,33164,3,PG,1,100,8425
1631709062.299767,197792.000,33164,3,PG,1,100,8433
1631709062.340346,197832.500,33182,2,PG,1,100,8437
1631709062.380926,197873.000,33182,2,PG,1,100,8439
1631709062.419000,197911.000,33199,3,PG,1,100,8440
1631709062.457074,197949.000,33199,3,PG,1,100,8429
1631709062.495149,197987.000,33199,3,PG,1,100,8419
1631709062.536730,198028.500,33217,2,PG,1,100,8407
1631709062.578311,198070.000,33217,2,PG,1,100,8402
1631709062.621730,198113.333,33236,3,PG,1,100,8392
1631709062.665148,198156.667,33236,3,PG,1,100,8392
1631709062.708566,198200.000,33236,3,PG,1,100,8391
1631709062.749646,198241.000,33254,2,PG,1,100,8389
1631709062.790726,198282.000,33254,2,PG,1,100,8390
1631709062.831306,198322.500,33271,2,PG,1,100,8387
1631709062.871885,198363.000,33271,2,PG,1,100,8395
1631709062.915303,198406.333,33289,3,PG,1,100,8400
1631709062.958721,198449.667,33289,3,PG,1,100,8410
1631709063.002140,198493.000,33289,3,PG,1,100,8417
1631709063.040882,198531.667,33309,3,PG,1,100,8418
1631709063.079624,198570.333,33309,3,PG,1,100,8427
1631709063.118367,198609.000,33309,3,PG,1,100,8430
1631709063.158946,198649.500,33327,2,PG,1,100,8427
1631709063.199525,198690.000,33327,2,PG,1,100,8433
1631709063.240105,198730.500,33346,2,PG,1,100,8427
1631709063.280684,198771.000,33346,2,PG,1,100,8408
1631709063.324436,198814.667,33362,3,PG,1,100,8401
1631709063.368188,198858.333,33362,3,PG,1,100,8395
1631709063.411940,198902.000,33362,3,PG,1,100,8391
1631709063.453021,198943.000,33381,2,PG,1,100,8401
1631709063.494101,198984.000,33381,2,PG,1,100,8395
1631709063.535181,199025.000,33399,2,PG,1,100,8394
1631709063.576262,199066.000,33399,2,PG,1,100,8402
1631709063.617091,199106.750,33419,4,PG,1,100,8402
1631709063.657921,199147.500,33419,4,PG,1,100,8406
1631709063.698751,199188.250,33419,4,PG,1,100,8414
1631709063.739581,199229.000,33419,4,PG,1,100,8421
1631709063.782999,199272.333,33437,3,PG,1,100,8430
1631709063.826417,199315.667,33437,3,PG,1,100,8437
1631709063.869835,199359.000,33437,3,PG,1,100,8444
1631709063.910414,199399.500,33456,2,PG,1,100,8449
1631709063.950994,199440.000,33456,2,PG,1,100,8448
1631709063.989402,199478.333,33473,3,PG,1,100,8445
1631709064.027811,199516.667,33473,3,PG,1,100,8432
1631709064.066219,199555.000,33473,3,PG,1,100,8429
1631709064.107299,199596.000,33492,2,PG,1,100,8429
1631709064.148380,199637.000,33492,2,PG,1,100,8425
1631709064.192132,199680.667,33510,3,PG,1,100,8429
1631709064.235884,199724.333,33510,3,PG,1,100,8426
1631709064.279636,199768.000,33510,3,PG,1,100,8432
1631709064.319714,199808.000,33529,2,PG,1,100,8436
1631709064.359793,199848.000,33529,2,PG,1,100,8439
1631709064.403545,199891.667,33547,3,PG,1,100,8451
1631709064.447297,199935.333,33547,3,PG,1,100,8462
1631709064.491049,199979.000,33547,3,PG,1,100,8479
1631709064.532630,200020.500,33564,2,PG,1,100,8484
1631709064.574212,200062.000,33564,2,PG,1,100,8483
1631709064.612620,200100.333,33582,3,PG,1,100,8482
1631709064.651029,200138.667,33582,3,PG,1,100,8484
1631709064.689437,200177.000,33582,3,PG,1,100,8500
1631709064.729515,200217.000,33601,2,PG,1,100,8491
1631709064.769593,200257.000,33601,2,PG,1,100,8478
1631709064.808002,200295.333,33619,3,PG,1,100,8458
1631709064.846410,200333.667,33619,3,PG,1,100,8447
1631709064.884819,200372.000,33619,3,PG,1,100,8424
1631709064.922225,200409.333,33636,3,PG,1,100,8414
1631709064.959632,200446.667,33636,3,PG,1,100,8407
1631709064.997038,200484.000,33636,3,PG,1,100,8404
1631709065.038619,200525.500,33655,2,PG,1,100,8395
1631709065.080201,200567.000,33655,2,PG,1,100,8383
1631709065.118275,200605.000,33674,3,PG,1,100,8380
1631709065.156349,200643.000,33674,3,PG,1,100,8376
1631709065.194424,200681.000,33674,3,PG,1,100,8372
1631709065.236005,200722.500,33692,2,PG,1,100,8374
1631709065.277586,200764.000,33692,2,PG,1,100,8378
1631709065.315995,200802.333,33709,3,PG,1,100,8372
1631709065.354403,200840.667,33709,3,PG,1,100,8368
1631709065.392812,200879.000,33709,3,PG,1,100,8363
1631709065.430552,200916.667,33727,3,PG,1,100,8368
1631709065.468292,200954.333,33727,3,PG,1,100,8350
1631709065.506033,200992.000,33727,3,PG,1,100,8345
1631709065.546111,201032.000,33746,2,PG,1,100,8322
1631709065.586190,201072.000,33746,2,PG,1,100,8311
1631709065.624932,201110.667,33764,3,PG,1,100,8296
1631709065.663674,201149.333,33764,3,PG,1,100,8288
1631709065.702416,201188.000,33764,3,PG,1,100,8287
1631709065.742996,201228.500,33783,2,PG,1,100,8287
1631709065.783575,201269.000,33783,2,PG,1,100,8277
1631709065.821650,201307.000,33799,3,PG,1,100,8272
1631709065.859724,201345.000,33799,3,PG,1,100,8267
1631709065.897798,201383.000,33799,3,PG,1,100,8272
1631709065.938378,201423.500,33818,2,PG,1,100,8277
1631709065.978957,201464.000,33818,2,PG,1,100,8273
1631709066.017031,201502.000,33837,3,PG,1,100,8281
1631709066.055106,201540.000,33837,3,PG,1,100,8286
1631709066.093180,201578.000,33837,3,PG,1,100,8291
1631709066.131922,201616.667,33856,3,PG,1,100,8295
1631709066.170665,201655.333,33856,3,PG,1,100,8287
1631709066.209407,201694.000,33856,3,PG,1,100,8275
1631709066.250488,201735.000,33872,2,PG,1,100,8275
1631709066.291568,201776.000,33872,2,PG,1,100,8249
1631709066.329642,201814.000,33891,3,PG,1,100,8238
1631709066.367717,201852.000,33891,3,PG,1,100,8230
1631709066.405791,201890.000,33891,3,PG,1,100,8229
1631709066.446871,201931.000,33909,2,PG,1,100,8225
1631709066.487952,201972.000,33909,2,PG,1,100,8218
1631709066.525692,202009.667,33928,3,PG,1,100,8215
1631709066.563432,202047.333,33928,3,PG,1,100,8216
1631709066.601173,202085.000,33928,3,PG,1,100,8214
1631709066.641251,202125.000,33946,2,PG,1,100,8219
1631709066.681329,202165.000,33946,2,PG,1,100,8220
1631709066.724748,202208.333,33963,3,PG,1,100,8222
1631709066.768166,202251.667,33963,3,PG,1,100,8224
1631709066.811584,202295.000,33963,3,PG,1,100,8233
1631709066.844649,202328.000,33981,2,PG,1,100,8238
1631709066.877713,202361.000,33981,2,PG,1,100,8237
1631709066.921465,202404.667,34001,3,PG,1,100,8217
1631709066.965218,202448.333,34001,3,PG,1,100,8209
1631709067.008970,202492.000,34001,3,PG,1,100,8199
1631709067.047712,202530.667,34019,3,PG,1,100,8194
1631709067.086455,202569.333,34019,3,PG,1,100,8179
1631709067.125197,202608.000,34019,3,PG,1,100,8179
1631709067.165275,202648.000,34035,2,PG,1,100,8186
1631709067.205354,202688.000,34035,2,PG,1,100,8193
1631709067.243762,202726.333,34053,3,PG,1,100,8196
1631709067.282170,202764.667,34053,3,PG,1,100,8197
1631709067.320579,202803.000,34053,3,PG,1,100,8194
1631709067.361158,202843.500,34072,2,PG,1,100,8209
1631709067.401737,202884.000,34072,2,PG,1,100,8220
1631709067.440480,202922.667,34090,3,PG,1,100,8222
1631709067.479222,202961.333,34090,3,PG,1,100,8231
1631709067.517965,203000.000,34090,3,PG,1,100,8242
1631709067.555371,203037.333,34109,3,PG,1,100,8231
1631709067.592777,203074.667,34109,3,PG,1,100,8222
1631709067.630184,203112.000,34109,3,PG,1,100,8218
1631709067.671765,203153.500,34125,2,PG,1,100,8216
1631709067.713346,203195.000,34125,2,PG,1,100,8226
1631709067.751421,203233.000,34144,3,PG,1,100,8217
1631709067.789495,203271.000,34144,3,PG,1,100,8218
1631709067.827569,203309.000,34144,3,PG,1,100,8230
1631709067.868650,203350.000,34162,2,PG,1,100,8229
1631709067.909730,203391.000,34162,2,PG,1,100,8238
1631709067.948138,203429.333,34182,3,PG,1,100,8238
1631709067.986547,203467.667,34182,3,PG,1,100,8249
1631709068.024955,203506.000,34182,3,PG,1,100,8260
1631709068.063030,203544.000,34198,3,PG,1,100,8271
1631709068.101104,203582.000,34198,3,PG,1,100,8289
1631709068.139179,203620.000,34198,3,PG,1,100,8288
1631709068.179257,203660.000,34217,2,PG,1,100,8283
1631709068.219335,203700.000,34217,2,PG,1,100,8272
1631709068.257744,203738.333,34235,3,PG,1,100,8265
1631709068.296152,203776.667,34235,3,PG,1,100,8267
1631709068.334560,203815.000,34235,3,PG,1,100,8264
1631709068.372301,203852.667,34254,3,PG,1,100,8270
1631709068.410041,203890.333,34254,3,PG,1,100,8271
1631709068.447782,203928.000,34254,3,PG,1,100,8276
1631709068.489864,203970.000,34272,2,PG,1,100,8285
1631709068.531946,204012.000,34272,2,PG,1,100,8292
1631709068.570020,204050.000,34289,3,PG,1,100,8302
1631709068.608095,204088.000,34289,3,PG,1,100,8320
1631709068.646169,204126.000,34289,3,PG,1,100,8329
1631709068.686749,204166.500,34307,2,PG,1,100,8343
1631709068.727328,204207.000,34307,2,PG,1,100,8345
1631709068.768659,204248.250,34329,4,PG,1,100,8346
1631709068.809989,204289.500,34329,4,PG,1,100,8350
1631709068.851320,204330.750,34329,4,PG,1,100,8355
1631709068.892651,204372.000,34329,4,PG,1,100,8362
1631709068.931059,204410.333,34348,3,PG,1,100,8376
1631709068.969468,204448.667,34348,3,PG,1,100,8378
1631709069.007876,204487.000,34348,3,PG,1,100,8383
1631709069.048455,204527.500,34367,2,PG,1,100,8381
1631709069.089035,204568.000,34367,2,PG,1,100,8392
1631709069.127443,204606.333,34385,3,PG,1,100,8409
1631709069.165852,204644.667,34385,3,PG,1,100,8417
1631709069.204260,204683.000,34385,3,PG,1,100,8420
1631709069.241666,204720.333,34402,3,PG,1,100,8431
1631709069.279073,204757.667,34402,3,PG,1,100,8443
1631709069.316479,204795.000,34402,3,PG,1,100,8444
1631709069.357559,204836.000,34420,2,PG,1,100,8439
1631709069.398640,204877.000,34420,2,PG,1,100,8438
1631709069.436714,204915.000,34439,3,PG,1,100,8439
1631709069.474789,204953.000,34439,3,PG,1,100,8446
1631709069.512863,204991.000,34439,3,PG,1,100,8453
1631709069.554444,205032.500,34457,2,PG,1,100,8463
1631709069.596025,205074.000,34457,2,PG,1,100,8467
1631709069.634100,205112.000,34476,3,PG,1,100,8475
1631709069.672174,205150.000,34476,3,PG,1,100,8488
1631709069.710249,205188.000,34476,3,PG,1,100,8503
1631709069.748323,205226.000,34492,3,PG,1,100,8521
1631709069.786397,205264.000,34492,3,PG,1,100,8527
1631709069.824472,205302.000,34492,3,PG,1,100,8538
1631709069.865051,205342.500,34511,2,PG,1,100,8537
1631709069.905631,205383.000,34511,2,PG,1,100,8539
1631709069.943705,205421.000,34530,3,PG,1,100,8538
1631709069.981779,205459.000,34530,3,PG,1,100,8538
1631709070.019854,205497.000,34530,3,PG,1,100,8550
1631709070.060433,205537.500,34549,2,PG,1,100,8552
1631709070.101012,205578.000,34549,2,PG,1,100,8563
1631709070.139087,205616.000,34565,3,PG,1,100,8571
1631709070.177161,205654.000,34565,3,PG,1,100,8574
1631709070.215236,205692.000,34565,3,PG,1,100,8588
1631709070.256316,205733.000,34584,2,PG,1,100,8605
1631709070.297396,205774.000,34584,2,PG,1,100,8609
1631709070.335471,205812.000,34602,3,PG,1,100,8613
1631709070.373545,205850.000,34602,3,PG,1,100,8636
1631709070.411619,205888.000,34602,3,PG,1,100,8635
1631709070.452700,205929.000,34621,2,PG,1,100,8630
1631709070.493780,205970.000,34621,2,PG,1,100,8621
1631709070.532188,206008.333,34639,3,PG,1,100,8620
1631709070.570597,206046.667,34639,3,PG,1,100,8623
1631709070.609005,206085.000,34639,3,PG,1,100,8615
1631709070.650085,206126.000,34656,2,PG,1,100,8614
1631709070.691166,206167.000,34656,2,PG,1,100,8617
1631709070.729574,206205.333,34674,3,PG,1,100,8624
1631709070.767982,206243.667,34674,3,PG,1,100,8634
1631709070.806391,206282.000,34674,3,PG,1,100,8649
1631709070.849475,206325.000,34694,3,PG,1,100,8662
1631709070.892559,206368.000,34694,3,PG,1,100,8682
1631709070.935643,206411.000,34694,3,PG,1,100,8680
1631709070.968207,206443.500,34712,2,PG,1,100,8678
1631709071.000771,206476.000,34712,2,PG,1,100,8690
1631709071.043855,206519.000,34729,3,PG,1,100,8687
1631709071.086939,206562.000,34729,3,PG,1,100,8693
1631709071.130023,206605.000,34729,3,PG,1,100,8704
1631709071.163589,206638.500,34747,2,PG,1,100,8722
1631709071.197155,206672.000,34747,2,PG,1,100,8740
1631709071.240907,206715.667,34766,3,PG,1,100,8745
1631709071.284659,206759.333,34766,3,PG,1,100,8760
1631709071.328411,206803.000,34766,3,PG,1,100,8779
1631709071.366485,206841.000,34784,3,PG,1,100,8799
1631709071.404560,206879.000,34784,3,PG,1,100,8806
1631709071.442634,206917.000,34784,3,PG,1,100,8815
1631709071.483715,206958.000,34801,2,PG,1,100,8830
1631709071.524795,206999.000,34801,2,PG,1,100,8826
1631709071.562869,207037.000,34819,3,PG,1,100,8817
1631709071.600944,207075.000,34819,3,PG,1,100,8820
1631709071.639018,207113.000,34819,3,PG,1,100,8815
1631709071.679096,207153.000,34838,2,PG,1,100,8824
1631709071.719175,207193.000,34838,2,PG,1,100,8830
1631709071.758251,207232.000,34856,3,PG,1,100,8820
1631709071.797327,207271.000,34856,3,PG,1,100,8828
1631709071.836404,207310.000,34856,3,PG,1,100,8835
1631709071.873810,207347.333,34876,3,PG,1,100,8834
1631709071.911217,207384.667,34876,3,PG,1,100,8846
1631709071.948623,207422.000,34876,3,PG,1,100,8844
1631709071.990204,207463.500,34892,2,PG,1,100,8848
1631709072.031785,207505.000,34892,2,PG,1,100,8867
1631709072.069526,207542.667,34911,3,PG,1,100,8854
1631709072.107266,207580.333,34911,3,PG,1,100,8844
1631709072.145007,207618.000,34911,3,PG,1,100,8833
1631709072.185586,207658.500,34929,2,PG,1,100,8825
1631709072.226166,207699.000,34929,2,PG,1,100,8808
1631709072.264908,207737.667,34948,3,PG,1,100,8808
1631709072.303650,207776.333,34948,3,PG,1,100,8806
1631709072.342393,207815.000,34948,3,PG,1,100,8801
1631709072.380467,207853.000,34964,3,PG,1,100,8817
1631709072.418541,207891.000,34964,3,PG,1,100,8815
1631709072.456616,207929.000,34964,3,PG,1,100,8828
1631709072.497195,207969.500,34983,2,PG,1,100,8829
1631709072.537774,208010.000,34983,2,PG,1,100,8835
1631709072.575849,208048.000,35001,3,PG,1,100,8851
1631709072.613923,208086.000,35001,3,PG,1,100,8858
1631709072.651998,208124.000,35001,3,PG,1,100,8869
1631709072.692577,208164.500,35020,2,PG,1,100,8880
1631709072.733156,208205.000,35020,2,PG,1,100,8879
1631709072.771899,208243.667,35038,3,PG,1,100,8878
1631709072.810641,208282.333,35038,3,PG,1,100,8876
1631709072.849383,208321.000,35038,3,PG,1,100,8876
1631709072.889963,208361.500,35056,2,PG,1,100,8873
1631709072.930542,208402.000,35056,2,PG,1,100,8888
1631709072.968282,208439.667,35074,3,PG,1,100,8891
1631709073.006023,208477.333,35074,3,PG,1,100,8902
1631709073.043763,208515.000,35074,3,PG,1,100,8906
1631709073.084843,208556.000,35093,2,PG,1,100,8918
1631709073.125924,208597.000,35093,2,PG,1,100,8921
1631709073.163998,208635.000,35111,3,PG,1,100,8933
1631709073.202073,208673.000,35111,3,PG,1,100,8944
1631709073.240147,208711.000,35111,3,PG,1,100,8955
1631709073.280726,208751.500,35128,2,PG,1,100,8973
1631709073.321306,208792.000,35128,2,PG,1,100,8968
1631709073.359714,208830.333,35146,3,PG,1,100,8989
1631709073.398122,208868.667,35146,3,PG,1,100,8995
1631709073.436531,208907.000,35146,3,PG,1,100,8990
1631709073.479949,208950.333,35165,3,PG,1,100,8984
1631709073.523367,208993.667,35165,3,PG,1,100,8976
1631709073.566785,209037.000,35165,3,PG,1,100,8980
1631709073.599349,209069.500,35183,2,PG,1,100,8979
1631709073.631913,209102.000,35183,2,PG,1,100,8979
1631709073.674997,209145.000,35200,3,PG,1,100,8987
1631709073.718081,209188.000,35200,3,PG,1,100,8988
1631709073.761165,209231.000,35200,3,PG,1,100,8995
1631709073.799907,209269.667,35219,3,PG,1,100,9001
1631709073.838650,209308.333,35219,3,PG,1,100,9007
1631709073.877392,209347.000,35219,3,PG,1,100,9013
1631709073.914214,209383.750,35243,4,PG,1,100,9021
1631709073.951036,209420.500,35243,4,PG,1,100,9031
1631709073.987858,209457.250,35243,4,PG,1,100,9048
1631709074.024680,209494.000,35243,4,PG,1,100,9058
1631709074.065760,209535.000,35261,2,PG,1,100,9062
1631709074.106841,209576.000,35261,2,PG,1,100,9067
1631709074.144915,209614.000,35280,3,PG,1,100,9059
1631709074.182990,209652.000,35280,3,PG,1,100,9056
1631709074.221064,209690.000,35280,3,PG,1,100,9049
1631709074.261643,209730.500,35298,2,PG,1,100,9050
1631709074.302222,209771.000,35298,2,PG,1,100,9039
1631709074.340297,209809.000,35317,3,PG,1,100,9048
1631709074.378371,209847.000,35317,3,PG,1,100,9049
1631709074.416446,209885.000,35317,3,PG,1,100,9055
1631709074.458027,209926.500,35333,2,PG,1,100,9050
1631709074.499608,209968.000,35333,2,PG,1,100,9063
1631709074.537683,210006.000,35352,3,PG,1,100,9071
1631709074.575757,210044.000,35352,3,PG,1,100,9064
1631709074.613832,210082.000,35352,3,PG,1,100,9075
1631709074.654912,210123.000,35370,2,PG,1,100,9079
1631709074.695992,210164.000,35370,2,PG,1,100,9091
1631709074.733398,210201.333,35389,3,PG,1,100,9091
1631709074.770805,210238.667,35389,3,PG,1,100,9096
1631709074.808211,210276.000,35389,3,PG,1,100,9100
1631709074.851629,210319.333,35406,3,PG,1,100,9098
1631709074.895048,210362.667,35406,3,PG,1,100,9089
1631709074.938466,210406.000,35406,3,PG,1,100,9080
1631709074.971530,210439.000,35425,2,PG,1,100,9076
1631709075.004595,210472.000,35425,2,PG,1,100,9072
1631709075.048681,210516.000,35443,3,PG,1,100,9068
1631709075.092767,210560.000,35443,3,PG,1,100,9071
1631709075.136854,210604.000,35443,3,PG,1,100,9075
1631709075.169918,210637.000,35462,2,PG,1,100,9073
1631709075.202983,210670.000,35462,2,PG,1,100,9066
1631709075.246067,210713.000,35480,3,PG,1,100,9069
1631709075.289151,210756.000,35480,3,PG,1,100,9071
1631709075.332235,210799.000,35480,3,PG,1,100,9070
1631709075.369976,210836.667,35497,3,PG,1,100,9075
1631709075.407716,210874.333,35497,3,PG,1,100,9078
1631709075.445457,210912.000,35497,3,PG,1,100,9095
1631709075.487038,210953.500,35515,2,PG,1,100,9088
1631709075.528619,210995.000,35515,2,PG,1,100,9077
1631709075.566694,211033.000,35534,3,PG,1,100,9059
1631709075.604768,211071.000,35534,3,PG,1,100,9041
1631709075.642842,211109.000,35534,3,PG,1,100,9038
1631709075.683923,211150.000,35552,2,PG,1,100,9022
1631709075.725003,211191.000,35552,2,PG,1,100,9015
1631709075.763077,211229.000,35570,3,PG,1,100,9016
1631709075.801152,211267.000,35570,3,PG,1,100,9006
1631709075.839226,211305.000,35570,3,PG,1,100,8994
1631709075.877301,211343.000,35588,3,PG,1,100,8988
1631709075.915375,211381.000,35588,3,PG,1,100,8986
1631709075.953449,211419.000,35588,3,PG,1,100,8991
1631709075.994029,211459.500,35607,2,PG,1,100,8991
1631709076.034608,211500.000,35607,2,PG,1,100,8983
1631709076.073350,211538.667,35625,3,PG,1,100,8984
1631709076.112093,211577.333,35625,3,PG,1,100,8968
1631709076.150835,211616.000,35625,3,PG,1,100,8946
1631709076.190913,211656.000,35644,2,PG,1,100,8913
1631709076.230992,211696.000,35644,2,PG,1,100,8888
1631709076.269066,211734.000,35660,3,PG,1,100,8865
1631709076.307141,211772.000,35660,3,PG,1,100,8847
1631709076.345215,211810.000,35660,3,PG,1,100,8823
1631709076.382955,211847.667,35679,3,PG,1,100,8817
1631709076.420696,211885.333,35679,3,PG,1,100,8801
1631709076.458436,211923.000,35679,3,PG,1,100,8786
1631709076.499516,211964.000,35697,2,PG,1,100,8777
1631709076.540597,212005.000,35697,2,PG,1,100,8769
1631709076.579005,212043.333,35716,3,PG,1,100,8765
1631709076.617414,212081.667,35716,3,PG,1,100,8756
1631709076.655822,212120.000,35716,3,PG,1,100,8742
1631709076.696902,212161.000,35732,2,PG,1,100,8715
1631709076.737983,212202.000,35732,2,PG,1,100,8683
1631709076.776057,212240.000,35752,3,PG,1,100,8648
1631709076.814131,212278.000,35752,3,PG,1,100,8613
1631709076.852206,212316.000,35752,3,PG,1,100,8588
1631709076.889946,212353.667,35770,3,PG,1,100,8566
1631709076.927687,212391.333,35770,3,PG,1,100,8551
1631709076.965427,212429.000,35770,3,PG,1,100,8530
1631709077.006507,212470.000,35789,2,PG,1,100,8508
1631709077.047588,212511.000,35789,2,PG,1,100,8507
1631709077.085996,212549.333,35805,3,PG,1,100,8503
1631709077.124404,212587.667,35805,3,PG,1,100,8495
1631709077.162813,212626.000,35805,3,PG,1,100,8487
1631709077.203392,212666.500,35824,2,PG,1,100,8479
1631709077.243971,212707.000,35824,2,PG,1,100,8466
1631709077.282046,212745.000,35842,3,PG,1,100,8434
1631709077.320120,212783.000,35842,3,PG,1,100,8398
1631709077.358195,212821.000,35842,3,PG,1,100,8368
1631709077.398273,212861.000,35861,2,PG,1,100,8348
1631709077.438351,212901.000,35861,2,PG,1,100,8328
1631709077.476760,212939.333,35879,3,PG,1,100,8308
1631709077.515168,212977.667,35879,3,PG,1,100,8302
1631709077.553576,213016.000,35879,3,PG,1,100,8287
1631709077.594657,213057.000,35896,2,PG,1,100,8293
1631709077.635737,213098.000,35896,2,PG,1,100,8279
1631709077.674479,213136.667,35914,3,PG,1,100,8277
1631709077.713222,213175.333,35914,3,PG,1,100,8279
1631709077.751964,213214.000,35914,3,PG,1,100,8278
1631709077.792543,213254.500,35934,2,PG,1,100,8262
1631709077.833123,213295.000,35934,2,PG,1,100,8240
1631709077.876875,213338.667,35952,3,PG,1,100,8214
1631709077.920627,213382.333,35952,3,PG,1,100,8190
1631709077.964379,213426.000,35952,3,PG,1,100,8175
1631709078.001786,213463.333,35969,3,PG,1,100,8170
1631709078.039192,213500.667,35969,3,PG,1,100,8172
1631709078.076599,213538.000,35969,3,PG,1,100,8159
1631709078.118180,213579.500,35987,2,PG,1,100,8164
1631709078.159761,213621.000,35987,2,PG,1,100,8163
1631709078.197501,213658.667,36006,3,PG,1,100,8166
1631709078.235242,213696.333,36006,3,PG,1,100,8171
1631709078.272982,213734.000,36006,3,PG,1,100,8173
1631709078.314564,213775.500,36024,2,PG,1,100,8187
1631709078.356145,213817.000,36024,2,PG,1,100,8170
1631709078.394219,213855.000,36043,3,PG,1,100,8143
1631709078.432294,213893.000,36043,3,PG,1,100,8121
1631709078.470368,213931.000,36043,3,PG,1,100,8104
1631709078.508442,213969.000,36059,3,PG,1,100,8104
1631709078.546517,214007.000,36059,3,PG,1,100,8103
1631709078.584591,214045.000,36059,3,PG,1,100,8097
1631709078.625170,214085.500,36078,2,PG,1,100,8095
1631709078.665750,214126.000,36078,2,PG,1,100,8100
1631709078.704492,214164.667,36097,3,PG,1,100,8101
1631709078.743235,214203.333,36097,3,PG,1,100,8106
1631709078.781977,214242.000,36097,3,PG,1,100,8119
1631709078.822556,214282.500,36116,2,PG,1,100,8135
1631709078.863136,214323.000,36116,2,PG,1,100,8153
1631709078.901544,214361.333,36132,3,PG,1,100,8148
1631709078.939952,214399.667,36132,3,PG,1,100,8139
1631709078.978361,214438.000,36132,3,PG,1,100,8120
1631709079.018940,214478.500,36156,4,PG,1,100,8104
1631709079.059519,214519.000,36156,4,PG,1,100,8104
1631709079.100099,214559.500,36156,4,PG,1,100,8091
1631709079.140678,214600.000,36156,4,PG,1,100,8096
1631709079.173242,214632.500,36174,2,PG,1,100,8093
1631709079.205805,214665.000,36174,2,PG,1,100,8097
1631709079.249557,214708.667,36193,3,PG,1,100,8105
1631709079.293310,214752.333,36193,3,PG,1,100,8104
1631709079.337062,214796.000,36193,3,PG,1,100,8114
1631709079.370126,214829.000,36211,2,PG,1,100,8119
1631709079.403191,214862.000,36211,2,PG,1,100,8130
1631709079.446943,214905.667,36230,3,PG,1,100,8141
1631709079.490695,214949.333,36230,3,PG,1,100,8138
1631709079.534447,214993.000,36230,3,PG,1,100,8125
1631709079.572522,215031.000,36246,3,PG,1,100,8112
1631709079.610596,215069.000,36246,3,PG,1,100,8105
1631709079.648671,215107.000,36246,3,PG,1,100,8104
1631709079.689751,215148.000,36265,2,PG,1,100,8104
1631709079.730831,215189.000,36265,2,PG,1,100,8117
1631709079.768906,215227.000,36284,3,PG,1,100,8117
1631709079.806980,215265.000,36284,3,PG,1,100,8124
1631709079.845054,215303.000,36284,3,PG,1,100,8134
1631709079.886135,215344.000,36303,2,PG,1,100,8142
1631709079.927215,215385.000,36303,2,PG,1,100,8151
1631709079.965289,215423.000,36321,3,PG,1,100,8173
1631709080.003364,215461.000,36321,3,PG,1,100,8180
1631709080.041438,215499.000,36321,3,PG,1,100,8193
1631709080.079513,215537.000,36338,3,PG,1,100,8199
1631709080.117587,215575.000,36338,3,PG,1,100,8197
1631709080.155662,215613.000,36338,3,PG,1,100,8205
1631709080.196742,215654.000,36356,2,PG,1,100,8195
1631709080.237822,215695.000,36356,2,PG,1,100,8194
1631709080.275563,215732.667,36375,3,PG,1,100,8199
1631709080.313303,215770.333,36375,3,PG,1,100,8200
1631709080.351043,215808.000,36375,3,PG,1,100,8211
1631709080.392625,215849.500,36393,2,PG,1,100,8216
1631709080.434206,215891.000,36393,2,PG,1,100,8226
1631709080.472614,215929.333,36410,3,PG,1,100,8241
1631709080.511023,215967.667,36410,3,PG,1,100,8253
1631709080.549431,216006.000,36410,3,PG,1,100,8260
1631709080.587505,216044.000,36428,3,PG,1,100,8268
1631709080.625580,216082.000,36428,3,PG,1,100,8281
1631709080.663654,216120.000,36428,3,PG,1,100,8301
1631709080.704234,216160.500,36448,2,PG,1,100,8312
1631709080.744813,216201.000,36448,2,PG,1,100,8318
1631709080.783221,216239.333,36466,3,PG,1,100,8313
1631709080.821630,216277.667,36466,3,PG,1,100,8316
1631709080.860038,216316.000,36466,3,PG,1,100,8312
1631709080.900116,216356.000,36483,2,PG,1,100,8312
1631709080.940195,216396.000,36483,2,PG,1,100,8315
1631709080.979271,216435.000,36501,3,PG,1,100,8316
1631709081.018347,216474.000,36501,3,PG,1,100,8322
1631709081.057424,216513.000,36501,3,PG,1,100,8329
1631709081.095164,216550.667,36520,3,PG,1,100,8340
1631709081.132905,216588.333,36520,3,PG,1,100,8344
1631709081.170645,216626.000,36520,3,PG,1,100,8361
1631709081.211725,216667.000,36538,2,PG,1,100,8371
1631709081.252805,216708.000,36538,2,PG,1,100,8384
1631709081.291214,216746.333,36557,3,PG,1,100,8394
1631709081.329622,216784.667,36557,3,PG,1,100,8402
1631709081.368031,216823.000,36557,3,PG,1,100,8419
1631709081.408610,216863.500,36573,2,PG,1,100,8438
1631709081.449189,216904.000,36573,2,PG,1,100,8445
1631709081.486930,216941.667,36592,3,PG,1,100,8434
1631709081.524670,216979.333,36592,3,PG,1,100,8436
1631709081.562411,217017.000,36592,3,PG,1,100,8427
1631709081.603992,217058.500,36610,2,PG,1,100,8440
1631709081.645573,217100.000,36610,2,PG,1,100,8448
1631709081.682980,217137.333,36630,3,PG,1,100,8441
1631709081.720386,217174.667,36630,3,PG,1,100,8452
1631709081.757792,217212.000,36630,3,PG,1,100,8453
1631709081.799374,217253.500,36646,2,PG,1,100,8471
1631709081.840955,217295.000,36646,2,PG,1,100,8474
1631709081.879029,217333.000,36665,3,PG,1,100,8482
1631709081.917104,217371.000,36665,3,PG,1,100,8500
1631709081.955178,217409.000,36665,3,PG,1,100,8507
1631709081.995758,217449.500,36683,2,PG,1,100,8515
1631709082.036337,217490.000,36683,2,PG,1,100,8526
1631709082.075079,217528.667,36702,3,PG,1,100,8538
1631709082.113822,217567.333,36702,3,PG,1,100,8555
1631709082.152564,217606.000,36702,3,PG,1,100,8558
1631709082.195982,217649.333,36720,3,PG,1,100,8554
1631709082.239400,217692.667,36720,3,PG,1,100,8552
1631709082.282819,217736.000,36720,3,PG,1,100,8558
1631709082.315382,217768.500,36737,2,PG,1,100,8558
1631709082.347946,217801.000,36737,2,PG,1,100,8565
1631709082.391364,217844.333,36755,3,PG,1,100,8576
1631709082.434782,217887.667,36755,3,PG,1,100,8582
1631709082.478200,217931.000,36755,3,PG,1,100,8590
1631709082.515941,217968.667,36774,3,PG,1,100,8602
1631709082.553681,218006.333,36774,3,PG,1,100,8612
1631709082.591422,218044.000,36774,3,PG,1,100,8622
1631709082.633003,218085.500,36792,2,PG,1,100,8612
1631709082.674584,218127.000,36792,2,PG,1,100,8610
1631709082.712324,218164.667,36810,3,PG,1,100,8598
1631709082.750065,218202.333,36810,3,PG,1,100,8589
1631709082.787805,218240.000,36810,3,PG,1,100,8568
1631709082.828886,218281.000,36828,2,PG,1,100,8560
1631709082.869966,218322.000,36828,2,PG,1,100,8557
1631709082.908040,218360.000,36847,3,PG,1,100,8568
1631709082.946115,218398.000,36847,3,PG,1,100,8580
1631709082.984189,218436.000,36847,3,PG,1,100,8603
1631709083.021930,218473.667,36865,3,PG,1,100,8630
1631709083.059670,218511.333,36865,3,PG,1,100,8659
1631709083.097410,218549.000,36865,3,PG,1,100,8699
1631709083.138491,218590.000,36884,2,PG,1,100,8745
1631709083.179571,218631.000,36884,2,PG,1,100,8788
1631709083.217645,218669.000,36900,3,PG,1,100,8850
1631709083.255720,218707.000,36900,3,PG,1,100,8886
1631709083.293794,218745.000,36900,3,PG,1,100,8908
1631709083.334874,218786.000,36919,2,PG,1,100,8930
1631709083.375955,218827.000,36919,2,PG,1,100,8957
1631709083.413695,218864.667,36937,3,PG,1,100,8968
1631709083.451436,218902.333,36937,3,PG,1,100,8987
1631709083.489176,218940.000,36937,3,PG,1,100,9001
1631709083.527250,218978.000,36956,3,PG,1,100,9015
1631709083.565325,219016.000,36956,3,PG,1,100,9035
1631709083.603399,219054.000,36956,3,PG,1,100,9038
1631709083.644480,219095.000,36973,2,PG,1,100,9040
1631709083.685560,219136.000,36973,2,PG,1,100,9040
1631709083.723634,219174.000,36992,3,PG,1,100,9049
1631709083.761708,219212.000,36992,3,PG,1,100,9057
1631709083.799783,219250.000,36992,3,PG,1,100,9064
1631709083.840863,219291.000,37010,2,PG,1,100,9069
1631709083.881943,219332.000,37010,2,PG,1,100,9083
1631709083.920018,219370.000,37029,3,PG,1,100,9086
1631709083.958092,219408.000,37029,3,PG,1,100,9096
1631709083.996167,219446.000,37029,3,PG,1,100,9105
1631709084.036245,219486.000,37046,2,PG,1,100,9116
1631709084.076323,219526.000,37046,2,PG,1,100,9128
1631709084.117404,219567.000,37068,4,PG,1,100,9131
1631709084.158484,219608.000,37068,4,PG,1,100,9139
1631709084.199564,219649.000,37068,4,PG,1,100,9150
1631709084.240644,219690.000,37068,4,PG,1,100,9146
1631709084.279053,219728.333,37086,3,PG,1,100,9152
1631709084.317461,219766.667,37086,3,PG,1,100,9162
1631709084.355870,219805.000,37086,3,PG,1,100,9170
1631709084.396449,219845.500,37105,2,PG,1,100,9168
1631709084.437028,219886.000,37105,2,PG,1,100,9173
1631709084.475437,219924.333,37123,3,PG,1,100,9183
1631709084.513845,219962.667,37123,3,PG,1,100,9186
1631709084.552253,220001.000,37123,3,PG,1,100,9183
1631709084.589660,220038.333,37143,3,PG,1,100,9182
1631709084.627066,220075.667,37143,3,PG,1,100,9192
1631709084.664473,220113.000,37143,3,PG,1,100,9200
1631709084.705553,220154.000,37161,2,PG,1,100,9206
1631709084.746633,220195.000,37161,2,PG,1,100,9206
1631709084.785376,220233.667,37178,3,PG,1,100,9215
1631709084.824118,220272.333,37178,3,PG,1,100,9220
1631709084.862860,220311.000,37178,3,PG,1,100,9221
1631709084.903941,220352.000,37196,2,PG,1,100,9213
1631709084.945021,220393.000,37196,2,PG,1,100,9210
1631709084.983095,220431.000,37215,3,PG,1,100,9203
1631709085.021170,220469.000,37215,3,PG,1,100,9208
1631709085.059244,220507.000,37215,3,PG,1,100,9192
1631709085.099323,220547.000,37233,2,PG,1,100,9191
1631709085.139401,220587.000,37233,2,PG,1,100,9173
1631709085.177141,220624.667,37250,3,PG,1,100,9169
1631709085.214882,220662.333,37250,3,PG,1,100,9158
1631709085.252622,220700.000,37250,3,PG,1,100,9147
1631709085.291698,220739.000,37268,3,PG,1,100,9149
1631709085.330775,220778.000,37268,3,PG,1,100,9149
1631709085.369851,220817.000,37268,3,PG,1,100,9131
1631709085.409930,220857.000,37287,2,PG,1,100,9116
1631709085.450008,220897.000,37287,2,PG,1,100,9109
1631709085.488416,220935.333,37305,3,PG,1,100,9099
1631709085.526825,220973.667,37305,3,PG,1,100,9083
1631709085.565233,221012.000,37305,3,PG,1,100,9064
1631709085.606313,221053.000,37325,2,PG,1,100,9044
1631709085.647394,221094.000,37325,2,PG,1,100,9034
1631709085.685468,221132.000,37341,3,PG,1,100,9026
1631709085.723542,221170.000,37341,3,PG,1,100,9030
1631709085.761617,221208.000,37341,3,PG,1,100,9030
1631709085.802196,221248.500,37360,2,PG,1,100,9025
1631709085.842775,221289.000,37360,2,PG,1,100,9007
1631709085.881518,221327.667,37378,3,PG,1,100,8996
1631709085.920260,221366.333,37378,3,PG,1,100,9001
1631709085.959002,221405.000,37378,3,PG,1,100,9002
1631709085.999081,221445.000,37397,2,PG,1,100,9003
1631709086.039159,221485.000,37397,2,PG,1,100,8978
1631709086.077234,221523.000,37413,3,PG,1,100,8940
1631709086.115308,221561.000,37413,3,PG,1,100,8923
1631709086.153383,221599.000,37413,3,PG,1,100,8907
1631709086.197134,221642.667,37432,3,PG,1,100,8903
1631709086.240887,221686.333,37432,3,PG,1,100,8894
1631709086.284639,221730.000,37432,3,PG,1,100,8883
1631709086.317203,221762.500,37450,2,PG,1,100,8875
1631709086.349766,221795.000,37450,2,PG,1,100,8862
1631709086.393518,221838.667,37469,3,PG,1,100,8847
1631709086.437271,221882.333,37469,3,PG,1,100,8828
1631709086.481023,221926.000,37469,3,PG,1,100,8811
1631709086.514087,221959.000,37487,2,PG,1,100,8806
1631709086.547152,221992.000,37487,2,PG,1,100,8793
1631709086.590904,222035.667,37505,3,PG,1,100,8775
1631709086.634656,222079.333,37505,3,PG,1,100,8765
1631709086.678408,222123.000,37505,3,PG,1,100,8754
1631709086.715815,222160.333,37523,3,PG,1,100,8725
1631709086.753221,222197.667,37523,3,PG,1,100,8710
1631709086.790628,222235.000,37523,3,PG,1,100,8696
1631709086.832209,222276.500,37542,2,PG,1,100,8694
1631709086.873790,222318.000,37542,2,PG,1,100,8681
1631709086.912199,222356.333,37560,3,PG,1,100,8655
1631709086.950607,222394.667,37560,3,PG,1,100,8644
1631709086.989015,222433.000,37560,3,PG,1,100,8640
1631709087.029094,222473.000,37577,2,PG,1,100,8634
1631709087.069172,222513.000,37577,2,PG,1,100,8630
1631709087.107580,222551.333,37595,3,PG,1,100,8617
1631709087.145989,222589.667,37595,3,PG,1,100,8600
1631709087.184397,222628.000,37595,3,PG,1,100,8594
1631709087.222138,222665.667,37614,3,PG,1,100,8581
1631709087.259878,222703.333,37614,3,PG,1,100,8566
1631709087.297619,222741.000,37614,3,PG,1,100,8541
1631709087.338699,222782.000,37632,2,PG,1,100,8521
1631709087.379779,222823.000,37632,2,PG,1,100,8507
1631709087.418187,222861.333,37649,3,PG,1,100,8503
1631709087.456596,222899.667,37649,3,PG,1,100,8503
1631709087.495004,222938.000,37649,3,PG,1,100,8499
1631709087.536586,222979.500,37668,2,PG,1,100,8487
1631709087.578167,223021.000,37668,2,PG,1,100,8484
1631709087.616241,223059.000,37687,3,PG,1,100,8447
1631709087.654315,223097.000,37687,3,PG,1,100,8419
1631709087.692390,223135.000,37687,3,PG,1,100,8391
1631709087.730130,223172.667,37705,3,PG,1,100,8359
1631709087.767871,223210.333,37705,3,PG,1,100,8354
1631709087.805611,223248.000,37705,3,PG,1,100,8337
1631709087.845690,223288.000,37724,2,PG,1,100,8318
1631709087.885768,223328.000,37724,2,PG,1,100,8303
1631709087.924176,223366.333,37740,3,PG,1,100,8302
1631709087.962585,223404.667,37740,3,PG,1,100,8306
1631709088.000993,223443.000,37740,3,PG,1,100,8301
1631709088.041572,223483.500,37759,2,PG,1,100,8297
1631709088.082152,223524.000,37759,2,PG,1,100,8285
1631709088.120560,223562.333,37777,3,PG,1,100,8275
1631709088.158968,223600.667,37777,3,PG,1,100,8271
1631709088.197377,223639.000,37777,3,PG,1,100,8255
1631709088.236119,223677.667,37796,3,PG,1,100,8234
1631709088.274862,223716.333,37796,3,PG,1,100,8228
1631709088.313604,223755.000,37796,3,PG,1,100,8224
1631709088.354183,223795.500,37812,2,PG,1,100,8210
1631709088.394763,223836.000,37812,2,PG,1,100,8211
1631709088.433171,223874.333,37831,3,PG,1,100,8199
1631709088.471579,223912.667,37831,3,PG,1,100,8200
1631709088.509988,223951.000,37831,3,PG,1,100,8199
1631709088.551068,223992.000,37850,2,PG,1,100,8186
1631709088.592148,224033.000,37850,2,PG,1,100,8197
1631709088.630223,224071.000,37869,3,PG,1,100,8185
1631709088.668297,224109.000,37869,3,PG,1,100,8167
1631709088.706372,224147.000,37869,3,PG,1,100,8151
1631709088.747452,224188.000,37887,2,PG,1,100,8144
1631709088.788532,224229.000,37887,2,PG,1,100,8143
1631709088.826272,224266.667,37904,3,PG,1,100,8167
1631709088.864013,224304.333,37904,3,PG,1,100,8195
1631709088.901753,224342.000,37904,3,PG,1,100,8218
1631709088.942333,224382.500,37922,2,PG,1,100,8219
1631709088.982912,224423.000,37922,2,PG,1,100,8243
1631709089.021320,224461.333,37941,3,PG,1,100,8257
1631709089.059729,224499.667,37941,3,PG,1,100,8265
1631709089.098137,224538.000,37941,3,PG,1,100,8278
1631709089.139217,224579.000,37959,2,PG,1,100,8246
1631709089.180298,224620.000,37959,2,PG,1,100,8220
1631709089.219574,224659.200,37979,5,PG,1,100,8211
1631709089.258851,224698.400,37979,5,PG,1,100,8217
1631709089.298128,224737.600,37979,5,PG,1,100,8248
1631709089.337405,224776.800,37979,5,PG,1,100,8274
1631709089.376682,224816.000,37979,5,PG,1,100,8304
1631709089.417261,224856.500,37997,2,PG,1,100,8326
1631709089.457840,224897.000,37997,2,PG,1,100,8337
1631709089.495914,224935.000,38015,3,PG,1,100,8358
1631709089.533989,224973.000,38015,3,PG,1,100,8373
1631709089.572063,225011.000,38015,3,PG,1,100,8395
1631709089.613144,225052.000,38033,2,PG,1,100,8403
1631709089.654224,225093.000,38033,2,PG,1,100,8410
1631709089.692298,225131.000,38052,3,PG,1,100,8421
1631709089.730373,225169.000,38052,3,PG,1,100,8436
1631709089.768447,225207.000,38052,3,PG,1,100,8454
1631709089.806855,225245.333,38070,3,PG,1,100,8464
1631709089.845264,225283.667,38070,3,PG,1,100,8468
1631709089.883672,225322.000,38070,3,PG,1,100,8462
1631709089.924252,225362.500,38087,2,PG,1,100,8473
1631709089.964831,225403.000,38087,2,PG,1,100,8462
1631709090.003239,225441.333,38104,3,PG,1,100,8480
1631709090.041648,225479.667,38104,3,PG,1,100,8503
1631709090.080056,225518.000,38104,3,PG,1,100,8513
1631709090.120134,225558.000,38122,2,PG,1,100,8530
1631709090.160213,225598.000,38122,2,PG,1,100,8529
1631709090.198955,225636.667,38140,3,PG,1,100,8528
1631709090.237697,225675.333,38140,3,PG,1,100,8524
1631709090.276440,225714.000,38140,3,PG,1,100,8532
1631709090.317019,225754.500,38159,2,PG,1,100,8539
1631709090.357599,225795.000,38159,2,PG,1,100,8561
1631709090.401017,225838.333,38175,3,PG,1,100,8574
1631709090.444435,225881.667,38175,3,PG,1,100,8592
1631709090.487853,225925.000,38175,3,PG,1,100,8598
1631709090.526261,225963.333,38195,3,PG,1,100,8598
1631709090.564670,226001.667,38195,3,PG,1,100,8619
1631709090.603078,226040.000,38195,3,PG,1,100,8626
1631709090.643657,226080.500,38213,2,PG,1,100,8634
1631709090.684237,226121.000,38213,2,PG,1,100,8641
1631709090.722311,226159.000,38232,3,PG,1,100,8639
1631709090.760386,226197.000,38232,3,PG,1,100,8650
1631709090.798460,226235.000,38232,3,PG,1,100,8652
1631709090.839540,226276.000,38250,2,PG,1,100,8674
1631709090.880620,226317.000,38250,2,PG,1,100,8691
1631709090.919029,226355.333,38267,3,PG,1,100,8715
1631709090.957437,226393.667,38267,3,PG,1,100,8727
1631709090.995846,226432.000,38267,3,PG,1,100,8722
1631709091.033920,226470.000,38285,3,PG,1,100,8740
1631709091.071995,226508.000,38285,3,PG,1,100,8756
1631709091.110069,226546.000,38285,3,PG,1,100,8754
1631709091.151650,226587.500,38304,2,PG,1,100,8748
1631709091.193231,226629.000,38304,2,PG,1,100,8753
1631709091.230972,226666.667,38322,3,PG,1,100,8775
1631709091.268712,226704.333,38322,3,PG,1,100,8785
1631709091.306453,226742.000,38322,3,PG,1,100,8786
1631709091.347032,226782.500,38339,2,PG,1,100,8784
1631709091.387611,226823.000,38339,2,PG,1,100,8800
1631709091.426354,226861.667,38357,3,PG,1,100,8804
1631709091.465096,226900.333,38357,3,PG,1,100,8802
1631709091.503839,226939.000,38357,3,PG,1,100,8796
1631709091.541579,226976.667,38377,3,PG,1,100,8804
1631709091.579319,227014.333,38377,3,PG,1,100,8814
1631709091.617060,227052.000,38377,3,PG,1,100,8802
1631709091.658140,227093.000,38395,2,PG,1,100,8808
1631709091.699220,227134.000,38395,2,PG,1,100,8824
1631709091.737295,227172.000,38412,3,PG,1,100,8836
1631709091.775369,227210.000,38412,3,PG,1,100,8840
1631709091.813443,227248.000,38412,3,PG,1,100,8837
1631709091.855025,227289.500,38430,2,PG,1,100,8850
1631709091.896606,227331.000,38430,2,PG,1,100,8850
1631709091.935014,227369.333,38449,3,PG,1,100,8854
1631709091.973423,227407.667,38449,3,PG,1,100,8858
1631709092.011831,227446.000,38449,3,PG,1,100,8856
1631709092.049572,227483.667,38467,3,PG,1,100,8855
1631709092.087312,227521.333,38467,3,PG,1,100,8850
1631709092.125052,227559.000,38467,3,PG,1,100,8859
1631709092.166133,227600.000,38486,2,PG,1,100,8875
1631709092.207213,227641.000,38486,2,PG,1,100,8877
1631709092.245287,227679.000,38502,3,PG,1,100,8881
1631709092.283362,227717.000,38502,3,PG,1,100,8888
1631709092.321436,227755.000,38502,3,PG,1,100,8888
1631709092.362015,227795.500,38521,2,PG,1,100,8892
1631709092.402595,227836.000,38521,2,PG,1,100,8893
1631709092.441003,227874.333,38540,3,PG,1,100,8898
1631709092.479412,227912.667,38540,3,PG,1,100,8906
1631709092.517820,227951.000,38540,3,PG,1,100,8914
1631709092.558900,227992.000,38559,2,PG,1,100,8913
1631709092.599981,228033.000,38559,2,PG,1,100,8914
1631709092.638055,228071.000,38575,3,PG,1,100,8912
1631709092.676129,228109.000,38575,3,PG,1,100,8932
1631709092.714204,228147.000,38575,3,PG,1,100,8944
