EpochTimestamp,EmotiBitTimestamp,PacketNumber,DataLength,TypeTag,ProtocolVersion,DataReliability,PR
1631709007.819300,143418.000,23470,1,PR,1,100,121137
1631709007.943542,143542.000,23484,2,PR,1,100,121195
1631709008.067785,143666.000,23484,2,PR,1,100,121181
1631709008.100349,143698.500,23503,2,PR,1,100,121192
1631709008.132912,143731.000,23503,2,PR,1,100,121213
1631709008.176665,143774.667,23522,3,PR,1,100,121208
1631709008.220417,143818.333,23522,3,PR,1,100,121197
1631709008.264169,143862.000,23522,3,PR,1,100,121226
1631709008.301575,143899.333,23540,3,PR,1,100,121218
1631709008.338982,143936.667,23540,3,PR,1,100,121228
1631709008.376388,143974.000,23540,3,PR,1,100,121231
1631709008.417469,144015.000,23557,2,PR,1,100,121203
1631709008.458549,144056.000,23557,2,PR,1,100,121204
1631709008.496623,144094.000,23575,3,PR,1,100,121201
1631709008.534698,144132.000,23575,3,PR,1,100,121194
1631709008.572772,144170.000,23575,3,PR,1,100,121164
1631709008.613852,144211.000,23594,2,PR,1,100,121158
1631709008.654933,144252.000,23594,2,PR,1,100,121150
1631709008.692673,144289.667,23612,3,PR,1,100,121135
1631709008.730413,144327.333,23612,3,PR,1,100,121126
1631709008.768154,144365.000,23612,3,PR,1,100,121113
1631709008.806562,144403.333,23629,3,PR,1,100,121124
1631709008.844971,144441.667,23629,3,PR,1,100,121145
1631709008.883379,144480.000,23629,3,PR,1,100,121154
1631709008.924459,144521.000,23647,2,PR,1,100,121154
1631709008.965540,144562.000,23647,2,PR,1,100,121143
1631709009.004282,144600.667,23666,3,PR,1,100,121139
1631709009.043024,144639.333,23666,3,PR,1,100,121152
1631709009.081767,144678.000,23666,3,PR,1,100,121171
1631709009.119507,144715.667,23685,3,PR,1,100,121139
1631709009.157248,144753.333,23685,3,PR,1,100,121097
1631709009.194988,144791.000,23685,3,PR,1,100,121070
1631709009.236068,144832.000,23704,2,PR,1,100,121059
1631709009.277148,144873.000,23704,2,PR,1,100,121064
1631709009.314555,144910.333,23720,3,PR,1,100,121073
1631709009.351961,144947.667,23720,3,PR,1,100,121069
1631709009.389368,144985.000,23720,3,PR,1,100,121085
1631709009.430448,145026.000,23739,2,PR,1,100,121066
1631709009.471529,145067.000,23739,2,PR,1,100,121048
1631709009.509269,145104.667,23757,3,PR,1,100,121045
1631709009.547009,145142.333,23757,3,PR,1,100,121037
1631709009.584750,145180.000,23757,3,PR,1,100,121048
1631709009.623826,145219.000,23776,3,PR,1,100,121053
1631709009.662902,145258.000,23776,3,PR,1,100,121066
1631709009.701979,145297.000,23776,3,PR,1,100,121068
1631709009.742558,145337.500,23792,2,PR,1,100,121031
1631709009.783137,145378.000,23792,2,PR,1,100,121038
1631709009.821880,145416.667,23811,3,PR,1,100,121031
1631709009.860622,145455.333,23811,3,PR,1,100,121030
1631709009.899364,145494.000,23811,3,PR,1,100,121025
1631709009.939443,145534.000,23829,2,PR,1,100,120994
1631709009.979521,145574.000,23829,2,PR,1,100,121004
1631709010.017930,145612.333,23849,3,PR,1,100,121003
1631709010.056338,145650.667,23849,3,PR,1,100,121014
1631709010.094746,145689.000,23849,3,PR,1,100,121004
1631709010.135326,145729.500,23867,2,PR,1,100,120989
1631709010.175905,145770.000,23867,2,PR,1,100,120983
1631709010.214647,145808.667,23884,3,PR,1,100,120989
1631709010.253390,145847.333,23884,3,PR,1,100,121006
1631709010.292132,145886.000,23884,3,PR,1,100,121000
1631709010.332211,145926.000,23902,2,PR,1,100,120981
1631709010.372289,145966.000,23902,2,PR,1,100,120990
1631709010.410697,146004.333,23921,3,PR,1,100,121005
1631709010.449106,146042.667,23921,3,PR,1,100,120995
1631709010.487514,146081.000,23921,3,PR,1,100,120987
1631709010.530932,146124.333,23939,3,PR,1,100,120973
1631709010.574350,146167.667,23939,3,PR,1,100,120994
1631709010.617769,146211.000,23939,3,PR,1,100,120992
1631709010.650332,146243.500,23956,2,PR,1,100,120986
1631709010.682896,146276.000,23956,2,PR,1,100,120970
1631709010.726648,146319.667,23974,3,PR,1,100,120979
1631709010.770400,146363.333,23974,3,PR,1,100,120992
1631709010.814152,146407.000,23974,3,PR,1,100,120998
1631709010.847217,146440.000,23993,2,PR,1,100,120998
1631709010.880281,146473.000,23993,2,PR,1,100,120976
1631709010.923700,146516.333,24011,3,PR,1,100,120992
1631709010.967118,146559.667,24011,3,PR,1,100,120980
1631709011.010536,146603.000,24011,3,PR,1,100,120992
1631709011.043601,146636.000,24031,2,PR,1,100,120986
1631709011.076665,146669.000,24031,2,PR,1,100,120972
1631709011.120083,146712.333,24047,3,PR,1,100,120970
1631709011.163502,146755.667,24047,3,PR,1,100,120949
1631709011.206920,146799.000,24047,3,PR,1,100,120961
1631709011.244994,146837.000,24066,3,PR,1,100,120967
1631709011.283069,146875.000,24066,3,PR,1,100,120953
1631709011.321143,146913.000,24066,3,PR,1,100,120982
1631709011.362223,146954.000,24084,2,PR,1,100,120980
1631709011.403304,146995.000,24084,2,PR,1,100,120987
1631709011.441378,147033.000,24103,3,PR,1,100,120985
1631709011.479452,147071.000,24103,3,PR,1,100,120964
1631709011.517527,147109.000,24103,3,PR,1,100,120996
1631709011.558607,147150.000,24119,2,PR,1,100,121001
1631709011.599687,147191.000,24119,2,PR,1,100,121016
1631709011.638096,147229.333,24138,3,PR,1,100,121015
1631709011.676504,147267.667,24138,3,PR,1,100,121006
1631709011.714913,147306.000,24138,3,PR,1,100,121029
1631709011.752987,147344.000,24156,3,PR,1,100,121023
1631709011.791061,147382.000,24156,3,PR,1,100,121026
1631709011.829136,147420.000,24156,3,PR,1,100,121030
1631709011.870216,147461.000,24175,2,PR,1,100,121017
1631709011.911296,147502.000,24175,2,PR,1,100,121018
1631709011.949037,147539.667,24191,3,PR,1,100,121018
1631709011.986777,147577.333,24191,3,PR,1,100,121010
1631709012.024518,147615.000,24191,3,PR,1,100,121023
1631709012.065598,147656.000,24211,2,PR,1,100,121012
1631709012.106678,147697.000,24211,2,PR,1,100,121011
1631709012.144753,147735.000,24229,3,PR,1,100,121019
1631709012.182827,147773.000,24229,3,PR,1,100,121029
1631709012.220901,147811.000,24229,3,PR,1,100,121032
1631709012.259310,147849.333,24248,3,PR,1,100,121034
1631709012.297718,147887.667,24248,3,PR,1,100,121040
1631709012.336127,147926.000,24248,3,PR,1,100,121044
1631709012.379879,147969.667,24269,3,PR,1,100,121055
1631709012.423631,148013.333,24269,3,PR,1,100,121055
1631709012.467383,148057.000,24269,3,PR,1,100,121071
1631709012.499947,148089.500,24288,2,PR,1,100,121061
1631709012.532510,148122.000,24288,2,PR,1,100,121060
1631709012.576262,148165.667,24304,3,PR,1,100,121053
1631709012.620015,148209.333,24304,3,PR,1,100,121060
1631709012.663767,148253.000,24304,3,PR,1,100,121044
1631709012.702175,148291.333,24323,3,PR,1,100,121059
1631709012.740584,148329.667,24323,3,PR,1,100,121058
1631709012.778992,148368.000,24323,3,PR,1,100,121066
1631709012.818569,148407.500,24341,2,PR,1,100,121077
1631709012.858147,148447.000,24341,2,PR,1,100,121062
1631709012.897223,148486.000,24360,3,PR,1,100,121060
1631709012.936299,148525.000,24360,3,PR,1,100,121069
1631709012.975376,148564.000,24360,3,PR,1,100,121087
1631709013.015955,148604.500,24377,2,PR,1,100,121093
1631709013.056534,148645.000,24377,2,PR,1,100,121075
1631709013.094943,148683.333,24396,3,PR,1,100,121075
1631709013.133351,148721.667,24396,3,PR,1,100,121094
1631709013.171760,148760.000,24396,3,PR,1,100,121098
1631709013.212339,148800.500,24414,2,PR,1,100,121089
1631709013.252918,148841.000,24414,2,PR,1,100,121078
1631709013.290992,148879.000,24433,3,PR,1,100,121103
1631709013.329067,148917.000,24433,3,PR,1,100,121110
1631709013.367141,148955.000,24433,3,PR,1,100,121106
1631709013.405884,148993.667,24451,3,PR,1,100,121103
1631709013.444626,149032.333,24451,3,PR,1,100,121092
1631709013.483368,149071.000,24451,3,PR,1,100,121115
1631709013.524449,149112.000,24468,2,PR,1,100,121121
1631709013.565529,149153.000,24468,2,PR,1,100,121115
1631709013.602936,149190.333,24486,3,PR,1,100,121116
1631709013.640342,149227.667,24486,3,PR,1,100,121137
1631709013.677748,149265.000,24486,3,PR,1,100,121125
1631709013.719330,149306.500,24505,2,PR,1,100,121140
1631709013.760911,149348.000,24505,2,PR,1,100,121137
1631709013.798651,149385.667,24523,3,PR,1,100,121137
1631709013.836392,149423.333,24523,3,PR,1,100,121130
1631709013.874132,149461.000,24523,3,PR,1,100,121113
1631709013.912540,149499.333,24540,3,PR,1,100,121116
1631709013.950949,149537.667,24540,3,PR,1,100,121119
1631709013.989357,149576.000,24540,3,PR,1,100,121131
1631709014.030438,149617.000,24559,2,PR,1,100,121126
1631709014.071518,149658.000,24559,2,PR,1,100,121122
1631709014.109258,149695.667,24578,3,PR,1,100,121131
1631709014.146999,149733.333,24578,3,PR,1,100,121138
1631709014.184739,149771.000,24578,3,PR,1,100,121135
1631709014.225819,149812.000,24596,2,PR,1,100,121145
1631709014.266900,149853.000,24596,2,PR,1,100,121144
1631709014.304974,149891.000,24615,3,PR,1,100,121165
1631709014.343049,149929.000,24615,3,PR,1,100,121170
1631709014.381123,149967.000,24615,3,PR,1,100,121167
1631709014.418863,150004.667,24631,3,PR,1,100,121168
1631709014.456604,150042.333,24631,3,PR,1,100,121149
1631709014.494344,150080.000,24631,3,PR,1,100,121152
1631709014.535925,150121.500,24650,2,PR,1,100,121128
1631709014.577507,150163.000,24650,2,PR,1,100,121139
1631709014.615247,150200.667,24668,3,PR,1,100,121146
1631709014.652987,150238.333,24668,3,PR,1,100,121146
1631709014.690728,150276.000,24668,3,PR,1,100,121143
1631709014.731307,150316.500,24687,2,PR,1,100,121143
1631709014.771887,150357.000,24687,2,PR,1,100,121140
1631709014.809961,150395.000,24703,3,PR,1,100,121151
1631709014.848035,150433.000,24703,3,PR,1,100,121159
1631709014.886110,150471.000,24703,3,PR,1,100,121171
1631709014.926689,150511.500,24722,2,PR,1,100,121172
1631709014.967268,150552.000,24722,2,PR,1,100,121180
1631709015.005677,150590.333,24741,3,PR,1,100,121198
1631709015.044085,150628.667,24741,3,PR,1,100,121178
1631709015.082494,150667.000,24741,3,PR,1,100,121170
1631709015.124075,150708.500,24760,2,PR,1,100,121160
1631709015.165656,150750.000,24760,2,PR,1,100,121126
1631709015.203397,150787.667,24778,3,PR,1,100,121122
1631709015.241137,150825.333,24778,3,PR,1,100,121131
1631709015.278877,150863.000,24778,3,PR,1,100,121126
1631709015.322295,150906.333,24795,3,PR,1,100,121107
1631709015.365714,150949.667,24795,3,PR,1,100,121061
1631709015.409132,150993.000,24795,3,PR,1,100,121054
1631709015.441695,151025.500,24813,2,PR,1,100,121101
1631709015.474259,151058.000,24813,2,PR,1,100,121130
1631709015.518345,151102.000,24832,3,PR,1,100,121110
1631709015.562432,151146.000,24832,3,PR,1,100,121083
1631709015.606518,151190.000,24832,3,PR,1,100,121094
1631709015.639081,151222.500,24850,2,PR,1,100,121077
1631709015.671645,151255.000,24850,2,PR,1,100,121040
1631709015.715063,151298.333,24867,3,PR,1,100,121037
1631709015.758481,151341.667,24867,3,PR,1,100,121035
1631709015.801899,151385.000,24867,3,PR,1,100,121035
1631709015.840308,151423.333,24885,3,PR,1,100,121049
1631709015.878716,151461.667,24885,3,PR,1,100,121057
1631709015.917125,151500.000,24885,3,PR,1,100,121036
1631709015.956702,151539.500,24905,2,PR,1,100,120996
1631709015.996279,151579.000,24905,2,PR,1,100,121013
1631709016.034688,151617.333,24923,3,PR,1,100,120995
1631709016.073096,151655.667,24923,3,PR,1,100,120981
1631709016.111505,151694.000,24923,3,PR,1,100,120974
1631709016.152585,151735.000,24942,2,PR,1,100,120946
1631709016.193665,151776.000,24942,2,PR,1,100,120969
1631709016.231740,151814.000,24958,3,PR,1,100,120960
1631709016.269814,151852.000,24958,3,PR,1,100,120944
1631709016.307888,151890.000,24958,3,PR,1,100,120921
1631709016.346297,151928.333,24977,3,PR,1,100,120900
1631709016.384705,151966.667,24977,3,PR,1,100,120929
1631709016.423113,152005.000,24977,3,PR,1,100,120928
1631709016.463693,152045.500,24995,2,PR,1,100,120929
1631709016.504272,152086.000,24995,2,PR,1,100,120927
1631709016.542346,152124.000,25014,3,PR,1,100,120955
1631709016.580421,152162.000,25014,3,PR,1,100,120965
1631709016.618495,152200.000,25014,3,PR,1,100,120936
1631709016.660077,152241.500,25030,2,PR,1,100,120923
1631709016.701658,152283.000,25030,2,PR,1,100,120873
1631709016.739398,152320.667,25049,3,PR,1,100,120928
1631709016.777139,152358.333,25049,3,PR,1,100,120973
1631709016.814879,152396.000,25049,3,PR,1,100,121035
1631709016.853287,152434.333,25067,3,PR,1,100,121055
1631709016.891696,152472.667,25067,3,PR,1,100,121036
1631709016.930104,152511.000,25067,3,PR,1,100,121086
1631709016.971184,152552.000,25087,2,PR,1,100,121122
1631709017.012265,152593.000,25087,2,PR,1,100,121196
1631709017.049671,152630.333,25103,3,PR,1,100,121254
1631709017.087078,152667.667,25103,3,PR,1,100,121315
1631709017.124484,152705.000,25103,3,PR,1,100,121364
1631709017.166065,152746.500,25122,2,PR,1,100,121398
1631709017.207647,152788.000,25122,2,PR,1,100,121461
1631709017.245721,152826.000,25140,3,PR,1,100,121478
1631709017.283795,152864.000,25140,3,PR,1,100,121487
1631709017.321870,152902.000,25140,3,PR,1,100,121470
1631709017.362449,152942.500,25159,2,PR,1,100,121481
1631709017.403028,152983.000,25159,2,PR,1,100,121478
1631709017.442105,153022.000,25183,5,PR,1,100,121500
1631709017.481181,153061.000,25183,5,PR,1,100,121522
1631709017.520257,153100.000,25183,5,PR,1,100,121504
1631709017.559334,153139.000,25183,5,PR,1,100,121509
1631709017.598410,153178.000,25183,5,PR,1,100,121476
1631709017.636485,153216.000,25201,3,PR,1,100,121432
1631709017.674559,153254.000,25201,3,PR,1,100,121421
1631709017.712633,153292.000,25201,3,PR,1,100,121372
1631709017.754215,153333.500,25220,2,PR,1,100,121357
1631709017.795796,153375.000,25220,2,PR,1,100,121334
1631709017.833870,153413.000,25238,3,PR,1,100,121293
1631709017.871945,153451.000,25238,3,PR,1,100,121286
1631709017.910019,153489.000,25238,3,PR,1,100,121267
1631709017.951099,153530.000,25256,2,PR,1,100,121279
1631709017.992180,153571.000,25256,2,PR,1,100,121288
1631709018.029920,153608.667,25274,3,PR,1,100,121277
1631709018.067661,153646.333,25274,3,PR,1,100,121276
1631709018.105401,153684.000,25274,3,PR,1,100,121249
1631709018.145980,153724.500,25293,2,PR,1,100,121272
1631709018.186560,153765.000,25293,2,PR,1,100,121267
1631709018.224968,153803.333,25311,3,PR,1,100,121251
1631709018.263376,153841.667,25311,3,PR,1,100,121218
1631709018.301785,153880.000,25311,3,PR,1,100,121215
1631709018.342865,153921.000,25328,2,PR,1,100,121205
1631709018.383945,153962.000,25328,2,PR,1,100,121194
1631709018.422020,154000.000,25346,3,PR,1,100,121200
1631709018.460094,154038.000,25346,3,PR,1,100,121193
1631709018.498168,154076.000,25346,3,PR,1,100,121204
1631709018.541587,154119.333,25365,3,PR,1,100,121222
1631709018.585005,154162.667,25365,3,PR,1,100,121227
1631709018.628423,154206.000,25365,3,PR,1,100,121251
1631709018.660987,154238.500,25383,2,PR,1,100,121237
1631709018.693550,154271.000,25383,2,PR,1,100,121258
1631709018.737303,154314.667,25402,3,PR,1,100,121291
1631709018.781055,154358.333,25402,3,PR,1,100,121284
1631709018.824807,154402.000,25402,3,PR,1,100,121226
1631709018.862881,154440.000,25419,3,PR,1,100,121176
1631709018.900956,154478.000,25419,3,PR,1,100,121195
1631709018.939030,154516.000,25419,3,PR,1,100,121219
1631709018.980611,154557.500,25438,2,PR,1,100,121226
1631709019.022193,154599.000,25438,2,PR,1,100,121216
1631709019.059933,154636.667,25456,3,PR,1,100,121225
1631709019.097673,154674.333,25456,3,PR,1,100,121250
1631709019.135414,154712.000,25456,3,PR,1,100,121262
1631709019.175492,154752.000,25475,2,PR,1,100,121286
1631709019.215570,154792.000,25475,2,PR,1,100,121275
1631709019.253979,154830.333,25491,3,PR,1,100,121305
1631709019.292387,154868.667,25491,3,PR,1,100,121342
1631709019.330796,154907.000,25491,3,PR,1,100,121368
1631709019.369204,154945.333,25510,3,PR,1,100,121389
1631709019.407613,154983.667,25510,3,PR,1,100,121379
1631709019.446021,155022.000,25510,3,PR,1,100,121374
1631709019.487101,155063.000,25528,2,PR,1,100,121386
1631709019.528182,155104.000,25528,2,PR,1,100,121368
1631709019.566924,155142.667,25547,3,PR,1,100,121364
1631709019.605666,155181.333,25547,3,PR,1,100,121337
1631709019.644409,155220.000,25547,3,PR,1,100,121355
1631709019.684487,155260.000,25563,2,PR,1,100,121348
1631709019.724565,155300.000,25563,2,PR,1,100,121349
1631709019.762974,155338.333,25582,3,PR,1,100,121349
1631709019.801382,155376.667,25582,3,PR,1,100,121347
1631709019.839790,155415.000,25582,3,PR,1,100,121353
1631709019.880871,155456.000,25601,2,PR,1,100,121345
1631709019.921951,155497.000,25601,2,PR,1,100,121341
1631709019.959691,155534.667,25620,3,PR,1,100,121339
1631709019.997432,155572.333,25620,3,PR,1,100,121340
1631709020.035172,155610.000,25620,3,PR,1,100,121329
1631709020.073581,155648.333,25638,3,PR,1,100,121307
1631709020.111989,155686.667,25638,3,PR,1,100,121292
1631709020.150398,155725.000,25638,3,PR,1,100,121280
1631709020.190476,155765.000,25655,2,PR,1,100,121263
1631709020.230554,155805.000,25655,2,PR,1,100,121254
1631709020.268628,155843.000,25673,3,PR,1,100,121257
1631709020.306703,155881.000,25673,3,PR,1,100,121263
1631709020.344777,155919.000,25673,3,PR,1,100,121274
1631709020.386358,155960.500,25692,2,PR,1,100,121283
1631709020.427940,156002.000,25692,2,PR,1,100,121289
1631709020.466348,156040.333,25710,3,PR,1,100,121292
1631709020.504757,156078.667,25710,3,PR,1,100,121290
1631709020.543165,156117.000,25710,3,PR,1,100,121284
1631709020.581239,156155.000,25727,3,PR,1,100,121297
1631709020.619314,156193.000,25727,3,PR,1,100,121283
1631709020.657388,156231.000,25727,3,PR,1,100,121310
1631709020.698468,156272.000,25745,2,PR,1,100,121294
1631709020.739549,156313.000,25745,2,PR,1,100,121293
1631709020.776955,156350.333,25764,3,PR,1,100,121279
1631709020.814362,156387.667,25764,3,PR,1,100,121252
1631709020.851768,156425.000,25764,3,PR,1,100,121257
1631709020.893349,156466.500,25783,2,PR,1,100,121254
1631709020.934931,156508.000,25783,2,PR,1,100,121256
1631709020.972671,156545.667,25802,3,PR,1,100,121262
1631709021.010412,156583.333,25802,3,PR,1,100,121260
1631709021.048152,156621.000,25802,3,PR,1,100,121246
1631709021.089232,156662.000,25818,2,PR,1,100,121241
1631709021.130312,156703.000,25818,2,PR,1,100,121198
1631709021.168387,156741.000,25837,3,PR,1,100,121206
1631709021.206461,156779.000,25837,3,PR,1,100,121187
1631709021.244536,156817.000,25837,3,PR,1,100,121179
1631709021.285616,156858.000,25855,2,PR,1,100,121180
1631709021.326696,156899.000,25855,2,PR,1,100,121178
1631709021.364437,156936.667,25874,3,PR,1,100,121211
1631709021.402177,156974.333,25874,3,PR,1,100,121198
1631709021.439917,157012.000,25874,3,PR,1,100,121184
1631709021.484004,157056.000,25890,3,PR,1,100,121181
1631709021.528090,157100.000,25890,3,PR,1,100,121181
1631709021.572176,157144.000,25890,3,PR,1,100,121178
1631709021.604739,157176.500,25909,2,PR,1,100,121188
1631709021.637303,157209.000,25909,2,PR,1,100,121207
1631709021.681055,157252.667,25927,3,PR,1,100,121213
1631709021.724808,157296.333,25927,3,PR,1,100,121220
1631709021.768560,157340.000,25927,3,PR,1,100,121220
1631709021.800622,157372.000,25947,2,PR,1,100,121237
1631709021.832685,157404.000,25947,2,PR,1,100,121237
1631709021.876437,157447.667,25965,3,PR,1,100,121250
1631709021.920189,157491.333,25965,3,PR,1,100,121258
1631709021.963942,157535.000,25965,3,PR,1,100,121257
1631709022.001682,157572.667,25982,3,PR,1,100,121265
1631709022.039422,157610.333,25982,3,PR,1,100,121267
1631709022.077163,157648.000,25982,3,PR,1,100,121283
1631709022.119245,157690.000,26000,2,PR,1,100,121274
1631709022.161327,157732.000,26000,2,PR,1,100,121254
1631709022.199402,157770.000,26019,3,PR,1,100,121266
1631709022.237476,157808.000,26019,3,PR,1,100,121257
1631709022.275550,157846.000,26019,3,PR,1,100,121254
1631709022.316130,157886.500,26037,2,PR,1,100,121224
1631709022.356709,157927.000,26037,2,PR,1,100,121239
1631709022.394783,157965.000,26054,3,PR,1,100,121247
1631709022.432858,158003.000,26054,3,PR,1,100,121247
1631709022.470932,158041.000,26054,3,PR,1,100,121240
1631709022.512012,158082.000,26072,2,PR,1,100,121223
1631709022.553093,158123.000,26072,2,PR,1,100,121243
1631709022.589664,158159.500,26096,4,PR,1,100,121256
1631709022.626236,158196.000,26096,4,PR,1,100,121253
1631709022.662807,158232.500,26096,4,PR,1,100,121245
1631709022.699379,158269.000,26096,4,PR,1,100,121236
1631709022.737787,158307.333,26115,3,PR,1,100,121264
1631709022.776196,158345.667,26115,3,PR,1,100,121272
1631709022.814604,158384.000,26115,3,PR,1,100,121265
1631709022.858022,158427.333,26134,3,PR,1,100,121246
1631709022.901440,158470.667,26134,3,PR,1,100,121219
1631709022.944859,158514.000,26134,3,PR,1,100,121232
1631709022.977923,158547.000,26152,2,PR,1,100,121215
1631709023.010988,158580.000,26152,2,PR,1,100,121213
1631709023.054406,158623.333,26169,3,PR,1,100,121186
1631709023.097824,158666.667,26169,3,PR,1,100,121200
1631709023.141242,158710.000,26169,3,PR,1,100,121221
1631709023.174307,158743.000,26187,2,PR,1,100,121217
1631709023.207371,158776.000,26187,2,PR,1,100,121228
1631709023.251458,158820.000,26206,3,PR,1,100,121232
1631709023.295544,158864.000,26206,3,PR,1,100,121245
1631709023.339630,158908.000,26206,3,PR,1,100,121255
1631709023.372194,158940.500,26224,2,PR,1,100,121259
1631709023.404757,158973.000,26224,2,PR,1,100,121263
1631709023.447841,159016.000,26243,3,PR,1,100,121268
1631709023.490926,159059.000,26243,3,PR,1,100,121262
1631709023.534010,159102.000,26243,3,PR,1,100,121275
1631709023.572418,159140.333,26259,3,PR,1,100,121277
1631709023.610826,159178.667,26259,3,PR,1,100,121268
1631709023.649235,159217.000,26259,3,PR,1,100,121263
1631709023.689814,159257.500,26278,2,PR,1,100,121254
1631709023.730394,159298.000,26278,2,PR,1,100,121245
1631709023.768802,159336.333,26297,3,PR,1,100,121251
1631709023.807210,159374.667,26297,3,PR,1,100,121254
1631709023.845619,159413.000,26297,3,PR,1,100,121257
1631709023.886699,159454.000,26316,2,PR,1,100,121261
1631709023.927779,159495.000,26316,2,PR,1,100,121269
1631709023.965854,159533.000,26332,3,PR,1,100,121264
1631709024.003928,159571.000,26332,3,PR,1,100,121251
1631709024.042002,159609.000,26332,3,PR,1,100,121275
1631709024.080411,159647.333,26351,3,PR,1,100,121254
1631709024.118819,159685.667,26351,3,PR,1,100,121283
1631709024.157228,159724.000,26351,3,PR,1,100,121286
1631709024.197306,159764.000,26369,2,PR,1,100,121273
1631709024.237384,159804.000,26369,2,PR,1,100,121303
1631709024.275793,159842.333,26388,3,PR,1,100,121301
1631709024.314201,159880.667,26388,3,PR,1,100,121309
1631709024.352609,159919.000,26388,3,PR,1,100,121299
1631709024.393189,159959.500,26406,2,PR,1,100,121270
1631709024.433768,160000.000,26406,2,PR,1,100,121275
1631709024.471843,160038.000,26423,3,PR,1,100,121254
1631709024.509917,160076.000,26423,3,PR,1,100,121258
1631709024.547991,160114.000,26423,3,PR,1,100,121250
1631709024.586066,160152.000,26441,3,PR,1,100,121209
1631709024.624140,160190.000,26441,3,PR,1,100,121197
1631709024.662215,160228.000,26441,3,PR,1,100,121172
1631709024.703295,160269.000,26460,2,PR,1,100,121132
1631709024.744375,160310.000,26460,2,PR,1,100,121109
1631709024.782784,160348.333,26479,3,PR,1,100,121078
1631709024.821192,160386.667,26479,3,PR,1,100,121058
1631709024.859600,160425.000,26479,3,PR,1,100,121027
1631709024.900681,160466.000,26496,2,PR,1,100,120999
1631709024.941761,160507.000,26496,2,PR,1,100,120941
1631709024.979835,160545.000,26514,3,PR,1,100,120837
1631709025.017910,160583.000,26514,3,PR,1,100,120827
1631709025.055984,160621.000,26514,3,PR,1,100,120796
1631709025.097064,160662.000,26533,2,PR,1,100,120805
1631709025.138145,160703.000,26533,2,PR,1,100,120875
1631709025.175885,160740.667,26551,3,PR,1,100,120865
1631709025.213625,160778.333,26551,3,PR,1,100,120920
1631709025.251366,160816.000,26551,3,PR,1,100,120979
1631709025.291945,160856.500,26568,2,PR,1,100,121045
1631709025.332525,160897.000,26568,2,PR,1,100,121114
1631709025.370933,160935.333,26586,3,PR,1,100,121199
1631709025.409341,160973.667,26586,3,PR,1,100,121265
1631709025.447750,161012.000,26586,3,PR,1,100,121327
1631709025.490834,161055.000,26605,3,PR,1,100,121344
1631709025.533918,161098.000,26605,3,PR,1,100,121368
1631709025.577002,161141.000,26605,3,PR,1,100,121352
1631709025.610067,161174.000,26623,2,PR,1,100,121311
1631709025.643131,161207.000,26623,2,PR,1,100,121242
1631709025.686884,161250.667,26642,3,PR,1,100,121214
1631709025.730636,161294.333,26642,3,PR,1,100,121156
1631709025.774388,161338.000,26642,3,PR,1,100,121026
1631709025.806952,161370.500,26659,2,PR,1,100,121042
1631709025.839515,161403.000,26659,2,PR,1,100,121097
1631709025.882933,161446.333,26678,3,PR,1,100,121122
1631709025.926352,161489.667,26678,3,PR,1,100,121082
1631709025.969770,161533.000,26678,3,PR,1,100,121084
1631709026.002834,161566.000,26696,2,PR,1,100,121130
1631709026.035899,161599.000,26696,2,PR,1,100,121134
1631709026.079317,161642.333,26715,3,PR,1,100,121127
1631709026.122736,161685.667,26715,3,PR,1,100,121126
1631709026.166154,161729.000,26715,3,PR,1,100,121123
1631709026.204228,161767.000,26731,3,PR,1,100,121206
1631709026.242302,161805.000,26731,3,PR,1,100,121238
1631709026.280377,161843.000,26731,3,PR,1,100,121286
1631709026.320956,161883.500,26750,2,PR,1,100,121314
1631709026.361535,161924.000,26750,2,PR,1,100,121366
1631709026.399610,161962.000,26768,3,PR,1,100,121431
1631709026.437684,162000.000,26768,3,PR,1,100,121445
1631709026.475759,162038.000,26768,3,PR,1,100,121474
1631709026.516839,162079.000,26787,2,PR,1,100,121490
1631709026.557919,162120.000,26787,2,PR,1,100,121570
1631709026.595994,162158.000,26805,3,PR,1,100,121600
1631709026.634068,162196.000,26805,3,PR,1,100,121611
1631709026.672143,162234.000,26805,3,PR,1,100,121646
1631709026.710217,162272.000,26823,3,PR,1,100,121642
1631709026.748291,162310.000,26823,3,PR,1,100,121706
1631709026.786366,162348.000,26823,3,PR,1,100,121756
1631709026.826945,162388.500,26841,2,PR,1,100,121826
1631709026.867524,162429.000,26841,2,PR,1,100,121857
1631709026.905265,162466.667,26860,3,PR,1,100,121870
1631709026.943005,162504.333,26860,3,PR,1,100,121908
1631709026.980746,162542.000,26860,3,PR,1,100,121894
1631709027.022828,162584.000,26878,2,PR,1,100,121915
1631709027.064910,162626.000,26878,2,PR,1,100,121907
1631709027.102650,162663.667,26895,3,PR,1,100,121903
1631709027.140391,162701.333,26895,3,PR,1,100,121958
1631709027.178131,162739.000,26895,3,PR,1,100,121953
1631709027.216206,162777.000,26913,3,PR,1,100,121960
1631709027.254280,162815.000,26913,3,PR,1,100,122003
1631709027.292354,162853.000,26913,3,PR,1,100,122062
1631709027.332934,162893.500,26932,2,PR,1,100,122095
1631709027.373513,162934.000,26932,2,PR,1,100,122089
1631709027.411587,162972.000,26950,3,PR,1,100,122009
1631709027.449662,163010.000,26950,3,PR,1,100,121983
1631709027.487736,163048.000,26950,3,PR,1,100,121982
1631709027.528316,163088.500,26969,2,PR,1,100,122034
1631709027.568895,163129.000,26969,2,PR,1,100,122023
1631709027.607637,163167.667,26985,3,PR,1,100,121998
1631709027.646380,163206.333,26985,3,PR,1,100,121942
1631709027.685122,163245.000,26985,3,PR,1,100,121902
1631709027.722862,163282.667,27010,3,PR,1,100,121928
1631709027.760603,163320.333,27010,3,PR,1,100,121941
1631709027.798343,163358.000,27010,3,PR,1,100,121931
1631709027.839424,163399.000,27028,2,PR,1,100,121865
1631709027.880504,163440.000,27028,2,PR,1,100,121820
1631709027.917910,163477.333,27047,3,PR,1,100,121871
1631709027.955317,163514.667,27047,3,PR,1,100,121858
1631709027.992723,163552.000,27047,3,PR,1,100,121826
1631709028.033803,163593.000,27065,2,PR,1,100,121661
1631709028.074884,163634.000,27065,2,PR,1,100,121656
1631709028.113292,163672.333,27082,3,PR,1,100,121696
1631709028.151700,163710.667,27082,3,PR,1,100,121625
1631709028.190109,163749.000,27082,3,PR,1,100,121587
1631709028.233861,163792.667,27100,3,PR,1,100,121576
1631709028.277613,163836.333,27100,3,PR,1,100,121492
1631709028.321365,163880.000,27100,3,PR,1,100,121394
1631709028.353929,163912.500,27119,2,PR,1,100,121286
1631709028.386493,163945.000,27119,2,PR,1,100,121202
1631709028.429911,163988.333,27137,3,PR,1,100,121172
1631709028.473329,164031.667,27137,3,PR,1,100,121189
1631709028.516747,164075.000,27137,3,PR,1,100,121278
1631709028.549812,164108.000,27154,2,PR,1,100,121307
1631709028.582876,164141.000,27154,2,PR,1,100,121299
1631709028.626963,164185.000,27172,3,PR,1,100,121259
1631709028.671049,164229.000,27172,3,PR,1,100,121159
1631709028.715135,164273.000,27172,3,PR,1,100,121157
1631709028.752875,164310.667,27192,3,PR,1,100,121105
1631709028.790616,164348.333,27192,3,PR,1,100,121075
1631709028.828356,164386.000,27192,3,PR,1,100,121079
1631709028.869437,164427.000,27210,2,PR,1,100,121061
1631709028.910517,164468.000,27210,2,PR,1,100,121079
1631709028.947589,164505.000,27227,3,PR,1,100,121100
1631709028.984662,164542.000,27227,3,PR,1,100,121086
1631709029.021734,164579.000,27227,3,PR,1,100,121030
1631709029.060143,164617.333,27245,3,PR,1,100,120967
1631709029.098551,164655.667,27245,3,PR,1,100,120929
1631709029.136959,164694.000,27245,3,PR,1,100,120926
1631709029.186556,164743.500,27264,2,PR,1,100,120907
1631709029.236153,164793.000,27264,2,PR,1,100,120919
1631709029.277734,164834.500,27282,2,PR,1,100,120909
1631709029.319316,164876.000,27282,2,PR,1,100,120889
1631709029.359895,164916.500,27301,2,PR,1,100,120905
1631709029.400474,164957.000,27301,2,PR,1,100,120908
1631709029.438883,164995.333,27317,3,PR,1,100,120921
1631709029.477291,165033.667,27317,3,PR,1,100,120961
1631709029.515699,165072.000,27317,3,PR,1,100,121009
1631709029.556279,165112.500,27336,2,PR,1,100,121003
1631709029.596858,165153.000,27336,2,PR,1,100,121028
1631709029.635266,165191.333,27355,3,PR,1,100,121042
1631709029.673675,165229.667,27355,3,PR,1,100,121003
1631709029.712083,165268.000,27355,3,PR,1,100,120965
1631709029.755835,165311.667,27374,3,PR,1,100,120942
1631709029.799587,165355.333,27374,3,PR,1,100,120939
1631709029.843340,165399.000,27374,3,PR,1,100,120960
1631709029.876404,165432.000,27390,2,PR,1,100,120970
1631709029.909469,165465.000,27390,2,PR,1,100,120964
1631709029.952553,165508.000,27409,3,PR,1,100,121019
1631709029.995637,165551.000,27409,3,PR,1,100,121037
1631709030.038722,165594.000,27409,3,PR,1,100,121071
1631709030.071786,165627.000,27427,2,PR,1,100,121095
1631709030.104851,165660.000,27427,2,PR,1,100,121110
1631709030.148269,165703.333,27446,3,PR,1,100,121145
1631709030.191687,165746.667,27446,3,PR,1,100,121143
1631709030.235105,165790.000,27446,3,PR,1,100,121141
1631709030.273514,165828.333,27464,3,PR,1,100,121115
1631709030.311922,165866.667,27464,3,PR,1,100,121106
1631709030.350330,165905.000,27464,3,PR,1,100,121116
1631709030.391411,165946.000,27481,2,PR,1,100,121099
1631709030.432491,165987.000,27481,2,PR,1,100,121124
1631709030.470565,166025.000,27499,3,PR,1,100,121114
1631709030.508640,166063.000,27499,3,PR,1,100,121103
1631709030.546714,166101.000,27499,3,PR,1,100,121144
1631709030.587294,166141.500,27518,2,PR,1,100,121121
1631709030.627873,166182.000,27518,2,PR,1,100,121161
1631709030.666281,166220.333,27537,3,PR,1,100,121175
1631709030.704690,166258.667,27537,3,PR,1,100,121174
1631709030.743098,166297.000,27537,3,PR,1,100,121201
1631709030.780504,166334.333,27554,3,PR,1,100,121192
1631709030.817911,166371.667,27554,3,PR,1,100,121197
1631709030.855317,166409.000,27554,3,PR,1,100,121181
1631709030.896398,166450.000,27572,2,PR,1,100,121119
1631709030.937478,166491.000,27572,2,PR,1,100,121125
1631709030.975552,166529.000,27591,3,PR,1,100,121083
1631709031.013627,166567.000,27591,3,PR,1,100,121112
1631709031.051701,166605.000,27591,3,PR,1,100,121114
1631709031.092781,166646.000,27609,2,PR,1,100,121100
1631709031.133862,166687.000,27609,2,PR,1,100,121112
1631709031.171936,166725.000,27628,3,PR,1,100,121118
1631709031.210011,166763.000,27628,3,PR,1,100,121127
1631709031.248085,166801.000,27628,3,PR,1,100,121117
1631709031.289165,166842.000,27644,2,PR,1,100,121132
1631709031.330245,166883.000,27644,2,PR,1,100,121148
1631709031.368654,166921.333,27663,3,PR,1,100,121139
1631709031.407062,166959.667,27663,3,PR,1,100,121181
1631709031.445471,166998.000,27663,3,PR,1,100,121200
1631709031.483879,167036.333,27681,3,PR,1,100,121223
1631709031.522287,167074.667,27681,3,PR,1,100,121239
1631709031.560696,167113.000,27681,3,PR,1,100,121202
1631709031.600774,167153.000,27700,2,PR,1,100,121182
1631709031.640852,167193.000,27700,2,PR,1,100,121171
1631709031.678927,167231.000,27717,3,PR,1,100,121163
1631709031.717001,167269.000,27717,3,PR,1,100,121158
1631709031.755076,167307.000,27717,3,PR,1,100,121182
1631709031.795655,167347.500,27736,2,PR,1,100,121194
1631709031.836234,167388.000,27736,2,PR,1,100,121202
1631709031.874643,167426.333,27754,3,PR,1,100,121193
1631709031.913051,167464.667,27754,3,PR,1,100,121200
1631709031.951459,167503.000,27754,3,PR,1,100,121215
1631709031.992540,167544.000,27773,2,PR,1,100,121246
1631709032.033620,167585.000,27773,2,PR,1,100,121257
1631709032.071694,167623.000,27789,3,PR,1,100,121252
1631709032.109769,167661.000,27789,3,PR,1,100,121243
1631709032.147843,167699.000,27789,3,PR,1,100,121270
1631709032.188923,167740.000,27808,2,PR,1,100,121278
1631709032.230004,167781.000,27808,2,PR,1,100,121284
1631709032.267744,167818.667,27826,3,PR,1,100,121232
1631709032.305485,167856.333,27826,3,PR,1,100,121203
1631709032.343225,167894.000,27826,3,PR,1,100,121231
1631709032.386643,167937.333,27845,3,PR,1,100,121220
1631709032.430061,167980.667,27845,3,PR,1,100,121228
1631709032.473480,168024.000,27845,3,PR,1,100,121217
1631709032.507045,168057.500,27863,2,PR,1,100,121237
1631709032.540611,168091.000,27863,2,PR,1,100,121244
1631709032.584029,168134.333,27881,3,PR,1,100,121247
1631709032.627447,168177.667,27881,3,PR,1,100,121257
1631709032.670865,168221.000,27881,3,PR,1,100,121266
1631709032.703429,168253.500,27899,2,PR,1,100,121261
1631709032.735993,168286.000,27899,2,PR,1,100,121266
1631709032.779411,168329.333,27918,3,PR,1,100,121276
1631709032.822829,168372.667,27918,3,PR,1,100,121285
1631709032.866247,168416.000,27918,3,PR,1,100,121284
1631709032.904321,168454.000,27941,3,PR,1,100,121286
1631709032.942396,168492.000,27941,3,PR,1,100,121271
1631709032.980470,168530.000,27941,3,PR,1,100,121243
1631709033.021551,168571.000,27958,2,PR,1,100,121239
1631709033.062631,168612.000,27958,2,PR,1,100,121255
1631709033.101373,168650.667,27976,3,PR,1,100,121246
1631709033.140116,168689.333,27976,3,PR,1,100,121265
1631709033.178858,168728.000,27976,3,PR,1,100,121273
1631709033.218936,168768.000,27995,2,PR,1,100,121283
1631709033.259015,168808.000,27995,2,PR,1,100,121292
1631709033.297423,168846.333,28013,3,PR,1,100,121288
1631709033.335831,168884.667,28013,3,PR,1,100,121315
1631709033.374240,168923.000,28013,3,PR,1,100,121307
1631709033.411980,168960.667,28032,3,PR,1,100,121309
1631709033.449721,168998.333,28032,3,PR,1,100,121328
1631709033.487461,169036.000,28032,3,PR,1,100,121310
1631709033.526203,169074.667,28048,3,PR,1,100,121338
1631709033.564946,169113.333,28048,3,PR,1,100,121364
1631709033.603688,169152.000,28048,3,PR,1,100,121324
1631709033.644268,169192.500,28068,2,PR,1,100,121309
1631709033.684847,169233.000,28068,2,PR,1,100,121273
1631709033.722587,169270.667,28086,3,PR,1,100,121303
1631709033.760328,169308.333,28086,3,PR,1,100,121321
1631709033.798068,169346.000,28086,3,PR,1,100,121317
1631709033.839148,169387.000,28105,2,PR,1,100,121328
1631709033.880229,169428.000,28105,2,PR,1,100,121334
1631709033.918303,169466.000,28123,3,PR,1,100,121331
1631709033.956378,169504.000,28123,3,PR,1,100,121351
1631709033.994452,169542.000,28123,3,PR,1,100,121330
1631709034.032192,169579.667,28140,3,PR,1,100,121363
1631709034.069933,169617.333,28140,3,PR,1,100,121364
1631709034.107673,169655.000,28140,3,PR,1,100,121359
1631709034.149254,169696.500,28158,2,PR,1,100,121377
1631709034.190836,169738.000,28158,2,PR,1,100,121373
1631709034.228576,169775.667,28177,3,PR,1,100,121372
1631709034.266316,169813.333,28177,3,PR,1,100,121340
1631709034.304057,169851.000,28177,3,PR,1,100,121335
1631709034.345137,169892.000,28195,2,PR,1,100,121331
1631709034.386218,169933.000,28195,2,PR,1,100,121338
1631709034.423958,169970.667,28214,3,PR,1,100,121319
1631709034.461698,170008.333,28214,3,PR,1,100,121344
1631709034.499439,170046.000,28214,3,PR,1,100,121357
1631709034.543525,170090.000,28231,3,PR,1,100,121357
1631709034.587611,170134.000,28231,3,PR,1,100,121345
1631709034.631697,170178.000,28231,3,PR,1,100,121357
1631709034.664261,170210.500,28250,2,PR,1,100,121379
1631709034.696825,170243.000,28250,2,PR,1,100,121393
1631709034.740577,170286.667,28268,3,PR,1,100,121397
1631709034.784329,170330.333,28268,3,PR,1,100,121385
1631709034.828081,170374.000,28268,3,PR,1,100,121384
1631709034.860645,170406.500,28287,2,PR,1,100,121422
1631709034.893208,170439.000,28287,2,PR,1,100,121422
1631709034.936626,170482.333,28303,3,PR,1,100,121381
1631709034.980045,170525.667,28303,3,PR,1,100,121343
1631709035.023463,170569.000,28303,3,PR,1,100,121355
1631709035.061871,170607.333,28322,3,PR,1,100,121366
1631709035.100280,170645.667,28322,3,PR,1,100,121366
1631709035.138688,170684.000,28322,3,PR,1,100,121384
1631709035.179768,170725.000,28340,2,PR,1,100,121376
1631709035.220849,170766.000,28340,2,PR,1,100,121386
1631709035.258923,170804.000,28359,3,PR,1,100,121394
1631709035.296997,170842.000,28359,3,PR,1,100,121404
1631709035.335072,170880.000,28359,3,PR,1,100,121423
1631709035.376152,170921.000,28375,2,PR,1,100,121426
1631709035.417232,170962.000,28375,2,PR,1,100,121429
1631709035.455307,171000.000,28394,3,PR,1,100,121432
1631709035.493381,171038.000,28394,3,PR,1,100,121435
1631709035.531456,171076.000,28394,3,PR,1,100,121444
1631709035.569196,171113.667,28413,3,PR,1,100,121450
1631709035.606936,171151.333,28413,3,PR,1,100,121423
1631709035.644677,171189.000,28413,3,PR,1,100,121404
1631709035.685757,171230.000,28432,2,PR,1,100,121402
1631709035.726837,171271.000,28432,2,PR,1,100,121415
1631709035.765246,171309.333,28450,3,PR,1,100,121423
1631709035.803654,171347.667,28450,3,PR,1,100,121407
1631709035.842062,171386.000,28450,3,PR,1,100,121417
1631709035.882642,171426.500,28467,2,PR,1,100,121426
1631709035.923221,171467.000,28467,2,PR,1,100,121448
1631709035.961630,171505.333,28485,3,PR,1,100,121456
1631709036.000038,171543.667,28485,3,PR,1,100,121454
1631709036.038446,171582.000,28485,3,PR,1,100,121464
1631709036.075519,171619.000,28504,3,PR,1,100,121472
1631709036.112591,171656.000,28504,3,PR,1,100,121478
1631709036.149664,171693.000,28504,3,PR,1,100,121482
1631709036.191245,171734.500,28522,2,PR,1,100,121466
1631709036.232826,171776.000,28522,2,PR,1,100,121507
1631709036.271235,171814.333,28539,3,PR,1,100,121498
1631709036.309643,171852.667,28539,3,PR,1,100,121460
1631709036.348051,171891.000,28539,3,PR,1,100,121422
1631709036.388631,171931.500,28557,2,PR,1,100,121437
1631709036.429210,171972.000,28557,2,PR,1,100,121480
1631709036.467284,172010.000,28576,3,PR,1,100,121484
1631709036.505359,172048.000,28576,3,PR,1,100,121483
1631709036.543433,172086.000,28576,3,PR,1,100,121468
1631709036.584513,172127.000,28595,2,PR,1,100,121491
1631709036.625594,172168.000,28595,2,PR,1,100,121505
1631709036.663334,172205.667,28614,3,PR,1,100,121518
1631709036.701075,172243.333,28614,3,PR,1,100,121516
1631709036.738815,172281.000,28614,3,PR,1,100,121518
1631709036.780396,172322.500,28630,2,PR,1,100,121527
1631709036.821978,172364.000,28630,2,PR,1,100,121519
1631709036.860052,172402.000,28649,3,PR,1,100,121542
1631709036.898126,172440.000,28649,3,PR,1,100,121519
1631709036.936201,172478.000,28649,3,PR,1,100,121472
1631709036.976780,172518.500,28667,2,PR,1,100,121453
1631709037.017359,172559.000,28667,2,PR,1,100,121457
1631709037.055100,172596.667,28686,3,PR,1,100,121475
1631709037.092840,172634.333,28686,3,PR,1,100,121536
1631709037.130581,172672.000,28686,3,PR,1,100,121589
1631709037.173999,172715.333,28702,3,PR,1,100,121655
1631709037.217417,172758.667,28702,3,PR,1,100,121717
1631709037.260835,172802.000,28702,3,PR,1,100,121770
1631709037.293399,172834.500,28721,2,PR,1,100,121782
1631709037.325962,172867.000,28721,2,PR,1,100,121837
1631709037.370049,172911.000,28739,3,PR,1,100,121902
1631709037.414135,172955.000,28739,3,PR,1,100,121933
1631709037.458221,172999.000,28739,3,PR,1,100,121949
1631709037.490784,173031.500,28759,2,PR,1,100,121940
1631709037.523348,173064.000,28759,2,PR,1,100,121936
1631709037.567100,173107.667,28777,3,PR,1,100,121934
1631709037.610852,173151.333,28777,3,PR,1,100,121905
1631709037.654605,173195.000,28777,3,PR,1,100,121896
1631709037.692345,173232.667,28794,3,PR,1,100,121875
1631709037.730086,173270.333,28794,3,PR,1,100,121880
1631709037.767826,173308.000,28794,3,PR,1,100,121876
1631709037.808906,173349.000,28812,2,PR,1,100,121873
1631709037.849987,173390.000,28812,2,PR,1,100,121887
1631709037.888061,173428.000,28831,3,PR,1,100,121882
1631709037.926135,173466.000,28831,3,PR,1,100,121884
1631709037.964210,173504.000,28831,3,PR,1,100,121879
1631709038.002618,173542.333,28854,3,PR,1,100,121875
1631709038.041027,173580.667,28854,3,PR,1,100,121873
1631709038.079435,173619.000,28854,3,PR,1,100,121863
1631709038.116841,173656.333,28873,3,PR,1,100,121849
1631709038.154248,173693.667,28873,3,PR,1,100,121838
1631709038.191654,173731.000,28873,3,PR,1,100,121858
1631709038.230062,173769.333,28889,3,PR,1,100,121848
1631709038.268471,173807.667,28889,3,PR,1,100,121819
1631709038.306879,173846.000,28889,3,PR,1,100,121785
1631709038.347960,173887.000,28908,2,PR,1,100,121772
1631709038.389040,173928.000,28908,2,PR,1,100,121782
1631709038.427782,173966.667,28926,3,PR,1,100,121794
1631709038.466525,174005.333,28926,3,PR,1,100,121806
1631709038.505267,174044.000,28926,3,PR,1,100,121814
1631709038.545846,174084.500,28946,2,PR,1,100,121832
1631709038.586426,174125.000,28946,2,PR,1,100,121862
1631709038.624500,174163.000,28964,3,PR,1,100,121887
1631709038.662575,174201.000,28964,3,PR,1,100,121888
1631709038.700649,174239.000,28964,3,PR,1,100,121889
1631709038.740727,174279.000,28981,2,PR,1,100,121907
1631709038.780806,174319.000,28981,2,PR,1,100,121917
1631709038.819214,174357.333,28999,3,PR,1,100,121930
1631709038.857622,174395.667,28999,3,PR,1,100,121930
1631709038.896031,174434.000,28999,3,PR,1,100,121929
1631709038.937111,174475.000,29018,2,PR,1,100,121970
1631709038.978191,174516.000,29018,2,PR,1,100,121964
1631709039.016600,174554.333,29036,3,PR,1,100,122016
1631709039.055008,174592.667,29036,3,PR,1,100,122053
1631709039.093416,174631.000,29036,3,PR,1,100,122078
1631709039.134497,174672.000,29053,2,PR,1,100,122152
1631709039.175577,174713.000,29053,2,PR,1,100,122129
1631709039.213651,174751.000,29071,3,PR,1,100,122075
1631709039.251726,174789.000,29071,3,PR,1,100,122020
1631709039.289800,174827.000,29071,3,PR,1,100,122059
1631709039.333218,174870.333,29090,3,PR,1,100,122113
1631709039.376637,174913.667,29090,3,PR,1,100,122146
1631709039.420055,174957.000,29090,3,PR,1,100,122198
1631709039.453119,174990.000,29109,2,PR,1,100,122206
1631709039.486184,175023.000,29109,2,PR,1,100,122243
1631709039.529936,175066.667,29126,3,PR,1,100,122297
1631709039.573688,175110.333,29126,3,PR,1,100,122398
1631709039.617440,175154.000,29126,3,PR,1,100,122483
1631709039.650505,175187.000,29144,2,PR,1,100,122535
1631709039.683570,175220.000,29144,2,PR,1,100,122573
1631709039.726654,175263.000,29163,3,PR,1,100,122591
1631709039.769738,175306.000,29163,3,PR,1,100,122589
1631709039.812822,175349.000,29163,3,PR,1,100,122564
1631709039.850897,175387.000,29181,3,PR,1,100,122536
1631709039.888971,175425.000,29181,3,PR,1,100,122506
1631709039.927046,175463.000,29181,3,PR,1,100,122528
1631709039.968126,175504.000,29200,2,PR,1,100,122526
1631709040.009206,175545.000,29200,2,PR,1,100,122542
1631709040.047615,175583.333,29216,3,PR,1,100,122562
1631709040.086023,175621.667,29216,3,PR,1,100,122555
1631709040.124431,175660.000,29216,3,PR,1,100,122585
1631709040.165512,175701.000,29235,2,PR,1,100,122576
1631709040.206592,175742.000,29235,2,PR,1,100,122565
1631709040.245000,175780.333,29253,3,PR,1,100,122578
1631709040.283409,175818.667,29253,3,PR,1,100,122549
1631709040.321817,175857.000,29253,3,PR,1,100,122559
1631709040.362396,175897.500,29272,2,PR,1,100,122558
1631709040.402976,175938.000,29272,2,PR,1,100,122544
1631709040.441050,175976.000,29289,3,PR,1,100,122555
1631709040.479124,176014.000,29289,3,PR,1,100,122541
1631709040.517199,176052.000,29289,3,PR,1,100,122548
1631709040.555607,176090.333,29308,3,PR,1,100,122557
1631709040.594016,176128.667,29308,3,PR,1,100,122554
1631709040.632424,176167.000,29308,3,PR,1,100,122572
1631709040.673003,176207.500,29326,2,PR,1,100,122556
1631709040.713583,176248.000,29326,2,PR,1,100,122567
1631709040.751991,176286.333,29345,3,PR,1,100,122547
1631709040.790399,176324.667,29345,3,PR,1,100,122544
1631709040.828808,176363.000,29345,3,PR,1,100,122543
1631709040.869387,176403.500,29363,2,PR,1,100,122526
1631709040.909966,176444.000,29363,2,PR,1,100,122515
1631709040.948375,176482.333,29380,3,PR,1,100,122472
1631709040.986783,176520.667,29380,3,PR,1,100,122477
1631709041.025192,176559.000,29380,3,PR,1,100,122462
1631709041.063266,176597.000,29398,3,PR,1,100,122442
1631709041.101340,176635.000,29398,3,PR,1,100,122437
1631709041.139415,176673.000,29398,3,PR,1,100,122415
1631709041.180996,176714.500,29417,2,PR,1,100,122402
1631709041.222577,176756.000,29417,2,PR,1,100,122370
1631709041.260652,176794.000,29435,3,PR,1,100,122389
1631709041.298726,176832.000,29435,3,PR,1,100,122390
1631709041.336801,176870.000,29435,3,PR,1,100,122391
1631709041.377380,176910.500,29452,2,PR,1,100,122371
1631709041.417959,176951.000,29452,2,PR,1,100,122322
1631709041.456033,176989.000,29471,3,PR,1,100,122320
1631709041.494108,177027.000,29471,3,PR,1,100,122321
1631709041.532182,177065.000,29471,3,PR,1,100,122305
1631709041.573263,177106.000,29490,2,PR,1,100,122269
1631709041.614343,177147.000,29490,2,PR,1,100,122247
1631709041.652417,177185.000,29508,3,PR,1,100,122256
1631709041.690492,177223.000,29508,3,PR,1,100,122245
1631709041.728566,177261.000,29508,3,PR,1,100,122245
1631709041.770147,177302.500,29525,2,PR,1,100,122213
1631709041.811729,177344.000,29525,2,PR,1,100,122213
1631709041.849469,177381.667,29543,3,PR,1,100,122237
1631709041.887209,177419.333,29543,3,PR,1,100,122219
1631709041.924950,177457.000,29543,3,PR,1,100,122219
1631709041.968702,177500.667,29562,3,PR,1,100,122199
1631709042.012454,177544.333,29562,3,PR,1,100,122187
1631709042.056206,177588.000,29562,3,PR,1,100,122185
1631709042.089271,177621.000,29580,2,PR,1,100,122173
1631709042.122336,177654.000,29580,2,PR,1,100,122168
1631709042.165420,177697.000,29599,3,PR,1,100,122153
1631709042.208504,177740.000,29599,3,PR,1,100,122147
1631709042.251588,177783.000,29599,3,PR,1,100,122144
1631709042.284152,177815.500,29615,2,PR,1,100,122127
1631709042.316715,177848.000,29615,2,PR,1,100,122125
1631709042.360468,177891.667,29634,3,PR,1,100,122125
1631709042.404220,177935.333,29634,3,PR,1,100,122129
1631709042.447972,177979.000,29634,3,PR,1,100,122122
1631709042.485713,178016.667,29653,3,PR,1,100,122119
1631709042.523453,178054.333,29653,3,PR,1,100,122113
1631709042.561193,178092.000,29653,3,PR,1,100,122104
1631709042.602273,178133.000,29672,2,PR,1,100,122088
1631709042.643354,178174.000,29672,2,PR,1,100,122068
1631709042.681428,178212.000,29688,3,PR,1,100,122076
1631709042.719503,178250.000,29688,3,PR,1,100,122068
1631709042.757577,178288.000,29688,3,PR,1,100,122065
1631709042.799158,178329.500,29707,2,PR,1,100,122064
1631709042.840739,178371.000,29707,2,PR,1,100,122059
1631709042.879148,178409.333,29725,3,PR,1,100,122058
1631709042.917556,178447.667,29725,3,PR,1,100,122045
1631709042.955965,178486.000,29725,3,PR,1,100,122069
1631709042.993705,178523.667,29744,3,PR,1,100,122062
1631709043.031446,178561.333,29744,3,PR,1,100,122080
1631709043.069186,178599.000,29744,3,PR,1,100,122079
1631709043.110016,178639.750,29768,4,PR,1,100,122054
1631709043.150846,178680.500,29768,4,PR,1,100,122069
1631709043.191675,178721.250,29768,4,PR,1,100,122041
1631709043.232505,178762.000,29768,4,PR,1,100,122063
1631709043.265069,178794.500,29786,2,PR,1,100,122049
1631709043.297632,178827.000,29786,2,PR,1,100,122042
1631709043.341385,178870.667,29805,3,PR,1,100,122050
1631709043.385137,178914.333,29805,3,PR,1,100,122036
1631709043.428889,178958.000,29805,3,PR,1,100,122055
1631709043.466629,178995.667,29822,3,PR,1,100,122070
1631709043.504370,179033.333,29822,3,PR,1,100,122039
1631709043.542110,179071.000,29822,3,PR,1,100,122058
1631709043.583190,179112.000,29841,2,PR,1,100,122064
1631709043.624271,179153.000,29841,2,PR,1,100,122067
1631709043.662345,179191.000,29859,3,PR,1,100,122070
1631709043.700420,179229.000,29859,3,PR,1,100,122061
1631709043.738494,179267.000,29859,3,PR,1,100,122052
1631709043.779574,179308.000,29878,2,PR,1,100,122039
1631709043.820655,179349.000,29878,2,PR,1,100,122040
1631709043.858395,179386.667,29896,3,PR,1,100,122037
1631709043.896135,179424.333,29896,3,PR,1,100,122038
1631709043.933876,179462.000,29896,3,PR,1,100,122021
1631709043.971950,179500.000,29913,3,PR,1,100,122028
1631709044.010025,179538.000,29913,3,PR,1,100,122034
1631709044.048099,179576.000,29913,3,PR,1,100,122032
1631709044.089179,179617.000,29931,2,PR,1,100,122041
1631709044.130260,179658.000,29931,2,PR,1,100,122049
1631709044.168000,179695.667,29950,3,PR,1,100,122064
1631709044.205740,179733.333,29950,3,PR,1,100,122056
1631709044.243481,179771.000,29950,3,PR,1,100,122051
1631709044.281555,179809.000,29968,3,PR,1,100,122032
1631709044.319630,179847.000,29968,3,PR,1,100,122005
1631709044.357704,179885.000,29968,3,PR,1,100,122037
1631709044.398784,179926.000,29986,2,PR,1,100,122036
1631709044.439865,179967.000,29986,2,PR,1,100,122032
1631709044.477939,180005.000,30004,3,PR,1,100,122022
1631709044.516013,180043.000,30004,3,PR,1,100,122011
1631709044.554088,180081.000,30004,3,PR,1,100,122041
1631709044.595168,180122.000,30023,2,PR,1,100,122039
1631709044.636248,180163.000,30023,2,PR,1,100,122044
1631709044.674323,180201.000,30041,3,PR,1,100,122033
1631709044.712397,180239.000,30041,3,PR,1,100,122038
1631709044.750472,180277.000,30041,3,PR,1,100,122060
1631709044.788212,180314.667,30060,3,PR,1,100,122057
1631709044.825953,180352.333,30060,3,PR,1,100,122041
1631709044.863693,180390.000,30060,3,PR,1,100,122026
1631709044.904773,180431.000,30076,2,PR,1,100,122045
1631709044.945853,180472.000,30076,2,PR,1,100,122029
1631709044.984262,180510.333,30095,3,PR,1,100,122033
1631709045.022670,180548.667,30095,3,PR,1,100,122032
1631709045.061079,180587.000,30095,3,PR,1,100,122023
1631709045.101658,180627.500,30113,2,PR,1,100,122045
1631709045.142237,180668.000,30113,2,PR,1,100,122041
1631709045.180646,180706.333,30132,3,PR,1,100,122050
1631709045.219054,180744.667,30132,3,PR,1,100,122042
1631709045.257463,180783.000,30132,3,PR,1,100,122040
1631709045.298543,180824.000,30148,2,PR,1,100,122065
1631709045.339623,180865.000,30148,2,PR,1,100,122064
1631709045.377363,180902.667,30168,3,PR,1,100,122070
1631709045.415104,180940.333,30168,3,PR,1,100,122062
1631709045.452844,180978.000,30168,3,PR,1,100,122042
1631709045.493924,181019.000,30186,2,PR,1,100,122043
1631709045.535005,181060.000,30186,2,PR,1,100,122038
1631709045.573413,181098.333,30205,3,PR,1,100,122051
1631709045.611822,181136.667,30205,3,PR,1,100,122043
1631709045.650230,181175.000,30205,3,PR,1,100,122044
1631709045.690809,181215.500,30223,2,PR,1,100,122036
1631709045.731389,181256.000,30223,2,PR,1,100,122044
1631709045.769797,181294.333,30240,3,PR,1,100,122046
1631709045.808205,181332.667,30240,3,PR,1,100,122055
1631709045.846614,181371.000,30240,3,PR,1,100,122037
1631709045.889698,181414.000,30258,3,PR,1,100,122042
1631709045.932782,181457.000,30258,3,PR,1,100,122057
1631709045.975866,181500.000,30258,3,PR,1,100,122050
1631709046.008931,181533.000,30277,2,PR,1,100,122049
1631709046.041996,181566.000,30277,2,PR,1,100,122027
1631709046.085748,181609.667,30295,3,PR,1,100,122015
1631709046.129500,181653.333,30295,3,PR,1,100,122026
1631709046.173252,181697.000,30295,3,PR,1,100,122016
1631709046.205816,181729.500,30312,2,PR,1,100,122018
1631709046.238379,181762.000,30312,2,PR,1,100,122008
1631709046.282131,181805.667,30330,3,PR,1,100,122018
1631709046.325884,181849.333,30330,3,PR,1,100,122020
1631709046.369636,181893.000,30330,3,PR,1,100,122031
1631709046.407710,181931.000,30350,3,PR,1,100,122015
1631709046.445785,181969.000,30350,3,PR,1,100,122001
1631709046.483859,182007.000,30350,3,PR,1,100,122036
1631709046.524939,182048.000,30368,2,PR,1,100,122046
1631709046.566020,182089.000,30368,2,PR,1,100,122033
1631709046.604762,182127.667,30385,3,PR,1,100,122036
1631709046.643504,182166.333,30385,3,PR,1,100,122013
1631709046.682247,182205.000,30385,3,PR,1,100,122019
1631709046.722325,182245.000,30403,2,PR,1,100,122014
1631709046.762403,182285.000,30403,2,PR,1,100,121989
1631709046.800478,182323.000,30422,3,PR,1,100,122005
1631709046.838552,182361.000,30422,3,PR,1,100,122008
1631709046.876627,182399.000,30422,3,PR,1,100,122013
1631709046.914367,182436.667,30440,3,PR,1,100,122019
1631709046.952107,182474.333,30440,3,PR,1,100,121998
1631709046.989848,182512.000,30440,3,PR,1,100,122022
1631709047.030928,182553.000,30459,2,PR,1,100,122023
1631709047.072008,182594.000,30459,2,PR,1,100,122033
1631709047.110083,182632.000,30475,3,PR,1,100,122035
1631709047.148157,182670.000,30475,3,PR,1,100,122023
1631709047.186232,182708.000,30475,3,PR,1,100,122028
1631709047.227813,182749.500,30494,2,PR,1,100,122002
1631709047.269394,182791.000,30494,2,PR,1,100,121985
1631709047.307469,182829.000,30513,3,PR,1,100,121954
1631709047.345543,182867.000,30513,3,PR,1,100,121898
1631709047.383617,182905.000,30513,3,PR,1,100,121905
1631709047.422026,182943.333,30532,3,PR,1,100,121905
1631709047.460434,182981.667,30532,3,PR,1,100,121949
1631709047.498842,183020.000,30532,3,PR,1,100,121965
1631709047.538921,183060.000,30548,2,PR,1,100,121981
1631709047.578999,183100.000,30548,2,PR,1,100,121985
1631709047.617408,183138.333,30567,3,PR,1,100,122025
1631709047.655816,183176.667,30567,3,PR,1,100,122054
1631709047.694224,183215.000,30567,3,PR,1,100,122072
1631709047.734804,183255.500,30585,2,PR,1,100,122087
1631709047.775383,183296.000,30585,2,PR,1,100,122078
1631709047.813791,183334.333,30604,3,PR,1,100,122079
1631709047.852200,183372.667,30604,3,PR,1,100,122058
1631709047.890608,183411.000,30604,3,PR,1,100,122040
1631709047.934026,183454.333,30622,3,PR,1,100,121967
1631709047.977445,183497.667,30622,3,PR,1,100,121887
1631709048.020863,183541.000,30622,3,PR,1,100,121807
1631709048.053927,183574.000,30639,2,PR,1,100,121732
1631709048.086992,183607.000,30639,2,PR,1,100,121646
1631709048.130744,183650.667,30657,3,PR,1,100,121567
1631709048.174496,183694.333,30657,3,PR,1,100,121467
1631709048.218248,183738.000,30657,3,PR,1,100,121401
1631709048.256657,183776.333,30681,3,PR,1,100,121346
1631709048.295065,183814.667,30681,3,PR,1,100,121246
1631709048.333474,183853.000,30681,3,PR,1,100,121166
1631709048.374053,183893.500,30700,2,PR,1,100,121166
1631709048.414632,183934.000,30700,2,PR,1,100,121127
1631709048.453041,183972.333,30719,3,PR,1,100,121036
1631709048.491449,184010.667,30719,3,PR,1,100,120945
1631709048.529857,184049.000,30719,3,PR,1,100,120942
1631709048.569936,184089.000,30735,2,PR,1,100,120897
1631709048.610014,184129.000,30735,2,PR,1,100,120889
1631709048.653098,184172.000,30754,3,PR,1,100,120979
1631709048.696182,184215.000,30754,3,PR,1,100,120994
1631709048.739267,184258.000,30754,3,PR,1,100,120965
1631709048.779345,184298.000,30772,2,PR,1,100,121015
1631709048.819423,184338.000,30772,2,PR,1,100,121062
1631709048.858500,184377.000,30791,3,PR,1,100,120998
1631709048.897576,184416.000,30791,3,PR,1,100,120994
1631709048.936652,184455.000,30791,3,PR,1,100,120979
1631709048.985247,184503.500,30809,2,PR,1,100,120913
1631709049.033842,184552.000,30809,2,PR,1,100,120916
1631709049.071917,184590.000,30826,3,PR,1,100,120935
1631709049.109991,184628.000,30826,3,PR,1,100,120936
1631709049.148066,184666.000,30826,3,PR,1,100,120988
1631709049.188645,184706.500,30844,2,PR,1,100,121032
1631709049.229224,184747.000,30844,2,PR,1,100,121138
1631709049.270805,184788.500,30864,2,PR,1,100,121163
1631709049.312387,184830.000,30864,2,PR,1,100,121139
1631709049.356473,184874.000,30882,3,PR,1,100,121184
1631709049.400559,184918.000,30882,3,PR,1,100,121182
1631709049.444645,184962.000,30882,3,PR,1,100,121191
1631709049.485725,185003.000,30899,2,PR,1,100,121195
1631709049.526806,185044.000,30899,2,PR,1,100,121134
1631709049.569890,185087.000,30917,3,PR,1,100,121087
1631709049.612974,185130.000,30917,3,PR,1,100,121074
1631709049.656058,185173.000,30917,3,PR,1,100,121075
1631709049.696638,185213.500,30936,2,PR,1,100,121070
1631709049.737217,185254.000,30936,2,PR,1,100,121093
1631709049.778297,185295.000,30954,2,PR,1,100,121091
1631709049.819377,185336.000,30954,2,PR,1,100,121102
1631709049.863798,185380.333,30973,3,PR,1,100,121069
1631709049.908218,185424.667,30973,3,PR,1,100,121098
1631709049.952638,185469.000,30973,3,PR,1,100,121079
1631709049.992716,185509.000,30989,2,PR,1,100,121091
1631709050.032794,185549.000,30989,2,PR,1,100,121075
1631709050.076213,185592.333,31008,3,PR,1,100,121075
1631709050.119631,185635.667,31008,3,PR,1,100,121073
1631709050.163049,185679.000,31008,3,PR,1,100,121054
1631709050.204129,185720.000,31026,2,PR,1,100,121093
1631709050.245210,185761.000,31026,2,PR,1,100,121094
1631709050.285789,185801.500,31046,2,PR,1,100,121214
1631709050.326368,185842.000,31046,2,PR,1,100,121250
1631709050.369787,185885.333,31062,3,PR,1,100,121331
1631709050.413205,185928.667,31062,3,PR,1,100,121356
1631709050.456623,185972.000,31062,3,PR,1,100,121300
1631709050.498204,186013.500,31081,2,PR,1,100,121314
1631709050.539785,186055.000,31081,2,PR,1,100,121299
1631709050.583204,186098.333,31099,3,PR,1,100,121334
1631709050.626622,186141.667,31099,3,PR,1,100,121346
1631709050.670040,186185.000,31099,3,PR,1,100,121315
1631709050.711120,186226.000,31118,2,PR,1,100,121323
1631709050.752200,186267.000,31118,2,PR,1,100,121270
1631709050.790275,186305.000,31134,3,PR,1,100,121246
1631709050.828349,186343.000,31134,3,PR,1,100,121272
1631709050.866424,186381.000,31134,3,PR,1,100,121276
1631709050.915519,186430.000,31153,2,PR,1,100,121271
1631709050.964616,186479.000,31153,2,PR,1,100,121250
1631709051.003024,186517.333,31171,3,PR,1,100,121310
1631709051.041432,186555.667,31171,3,PR,1,100,121271
1631709051.079841,186594.000,31171,3,PR,1,100,121261
1631709051.120921,186635.000,31190,2,PR,1,100,121276
1631709051.162001,186676.000,31190,2,PR,1,100,121272
1631709051.211097,186725.000,31208,2,PR,1,100,121274
1631709051.260193,186774.000,31208,2,PR,1,100,121243
1631709051.297934,186811.667,31226,3,PR,1,100,121247
1631709051.335674,186849.333,31226,3,PR,1,100,121238
1631709051.373414,186887.000,31226,3,PR,1,100,121265
1631709051.416499,186930.000,31244,3,PR,1,100,121242
1631709051.459583,186973.000,31244,3,PR,1,100,121250
1631709051.502667,187016.000,31244,3,PR,1,100,121236
1631709051.544749,187058.000,31263,2,PR,1,100,121214
1631709051.586831,187100.000,31263,2,PR,1,100,121232
1631709051.627912,187141.000,31281,2,PR,1,100,121204
1631709051.668992,187182.000,31281,2,PR,1,100,121218
1631709051.712744,187225.667,31300,3,PR,1,100,121198
1631709051.756496,187269.333,31300,3,PR,1,100,121193
1631709051.800248,187313.000,31300,3,PR,1,100,121180
1631709051.840828,187353.500,31316,2,PR,1,100,121188
1631709051.881407,187394.000,31316,2,PR,1,100,121171
1631709051.924491,187437.000,31335,3,PR,1,100,121157
1631709051.967576,187480.000,31335,3,PR,1,100,121139
1631709052.010660,187523.000,31335,3,PR,1,100,121142
1631709052.050237,187562.500,31353,2,PR,1,100,121141
1631709052.089814,187602.000,31353,2,PR,1,100,121185
1631709052.131897,187644.000,31372,2,PR,1,100,121178
1631709052.173979,187686.000,31372,2,PR,1,100,121187
1631709052.217731,187729.667,31389,3,PR,1,100,121180
1631709052.261483,187773.333,31389,3,PR,1,100,121216
1631709052.305235,187817.000,31389,3,PR,1,100,121222
1631709052.346316,187858.000,31408,2,PR,1,100,121249
1631709052.387396,187899.000,31408,2,PR,1,100,121231
1631709052.430146,187941.667,31426,3,PR,1,100,121315
1631709052.472896,187984.333,31426,3,PR,1,100,121312
1631709052.515646,188027.000,31426,3,PR,1,100,121289
1631709052.556226,188067.500,31445,2,PR,1,100,121245
1631709052.596805,188108.000,31445,2,PR,1,100,121232
1631709052.637885,188149.000,31463,2,PR,1,100,121295
1631709052.678966,188190.000,31463,2,PR,1,100,121298
1631709052.723052,188234.000,31480,3,PR,1,100,121327
1631709052.767138,188278.000,31480,3,PR,1,100,121324
1631709052.811224,188322.000,31480,3,PR,1,100,121350
1631709052.851302,188362.000,31498,2,PR,1,100,121330
1631709052.891381,188402.000,31498,2,PR,1,100,121418
1631709052.935133,188445.667,31517,3,PR,1,100,121451
1631709052.978885,188489.333,31517,3,PR,1,100,121547
1631709053.022637,188533.000,31517,3,PR,1,100,121642
1631709053.063718,188574.000,31535,2,PR,1,100,121666
1631709053.104798,188615.000,31535,2,PR,1,100,121627
1631709053.143540,188653.667,31552,3,PR,1,100,121574
1631709053.182283,188692.333,31552,3,PR,1,100,121538
1631709053.221025,188731.000,31552,3,PR,1,100,121511
1631709053.261604,188771.500,31571,2,PR,1,100,121451
1631709053.302184,188812.000,31571,2,PR,1,100,121424
1631709053.342763,188852.500,31593,4,PR,1,100,121422
1631709053.383342,188893.000,31593,4,PR,1,100,121388
1631709053.423922,188933.500,31593,4,PR,1,100,121340
1631709053.464501,188974.000,31593,4,PR,1,100,121309
1631709053.508253,189017.667,31612,3,PR,1,100,121271
1631709053.552005,189061.333,31612,3,PR,1,100,121293
1631709053.595757,189105.000,31612,3,PR,1,100,121344
1631709053.636838,189146.000,31630,2,PR,1,100,121354
1631709053.677918,189187.000,31630,2,PR,1,100,121345
1631709053.718998,189228.000,31649,2,PR,1,100,121340
1631709053.760078,189269.000,31649,2,PR,1,100,121340
1631709053.803497,189312.333,31667,3,PR,1,100,121360
1631709053.846915,189355.667,31667,3,PR,1,100,121344
1631709053.890333,189399.000,31667,3,PR,1,100,121342
1631709053.928407,189437.000,31684,3,PR,1,100,121364
1631709053.966482,189475.000,31684,3,PR,1,100,121371
1631709054.004556,189513.000,31684,3,PR,1,100,121375
1631709054.054153,189562.500,31702,2,PR,1,100,121364
1631709054.103750,189612.000,31702,2,PR,1,100,121377
1631709054.143828,189652.000,31721,2,PR,1,100,121368
1631709054.183907,189692.000,31721,2,PR,1,100,121366
1631709054.222649,189730.667,31740,3,PR,1,100,121365
1631709054.261391,189769.333,31740,3,PR,1,100,121378
1631709054.300134,189808.000,31740,3,PR,1,100,121393
1631709054.340713,189848.500,31759,2,PR,1,100,121414
1631709054.381292,189889.000,31759,2,PR,1,100,121375
1631709054.424711,189932.333,31775,3,PR,1,100,121428
1631709054.468129,189975.667,31775,3,PR,1,100,121426
1631709054.511547,190019.000,31775,3,PR,1,100,121384
1631709054.552627,190060.000,31794,2,PR,1,100,121338
1631709054.593708,190101.000,31794,2,PR,1,100,121373
1631709054.636792,190144.000,31812,3,PR,1,100,121404
1631709054.679876,190187.000,31812,3,PR,1,100,121379
1631709054.722960,190230.000,31812,3,PR,1,100,121342
1631709054.764541,190271.500,31831,2,PR,1,100,121342
1631709054.806123,190313.000,31831,2,PR,1,100,121342
1631709054.844531,190351.333,31847,3,PR,1,100,121387
1631709054.882939,190389.667,31847,3,PR,1,100,121424
1631709054.921348,190428.000,31847,3,PR,1,100,121467
1631709054.970444,190477.000,31866,2,PR,1,100,121445
1631709055.019540,190526.000,31866,2,PR,1,100,121407
1631709055.057280,190563.667,31884,3,PR,1,100,121392
1631709055.095021,190601.333,31884,3,PR,1,100,121385
1631709055.132761,190639.000,31884,3,PR,1,100,121392
1631709055.174342,190680.500,31904,2,PR,1,100,121399
1631709055.215924,190722.000,31904,2,PR,1,100,121400
1631709055.256503,190762.500,31922,2,PR,1,100,121370
1631709055.297082,190803.000,31922,2,PR,1,100,121379
1631709055.341168,190847.000,31939,3,PR,1,100,121340
1631709055.385254,190891.000,31939,3,PR,1,100,121290
1631709055.429341,190935.000,31939,3,PR,1,100,121338
1631709055.470421,190976.000,31957,2,PR,1,100,121340
1631709055.511501,191017.000,31957,2,PR,1,100,121309
1631709055.551579,191057.000,31976,2,PR,1,100,121368
1631709055.591658,191097.000,31976,2,PR,1,100,121430
1631709055.635410,191140.667,31994,3,PR,1,100,121439
1631709055.679162,191184.333,31994,3,PR,1,100,121352
1631709055.722914,191228.000,31994,3,PR,1,100,121302
1631709055.761323,191266.333,32011,3,PR,1,100,121244
1631709055.799731,191304.667,32011,3,PR,1,100,121200
1631709055.838140,191343.000,32011,3,PR,1,100,121234
1631709055.887736,191392.500,32029,2,PR,1,100,121204
1631709055.937333,191442.000,32029,2,PR,1,100,121193
1631709055.977412,191482.000,32048,2,PR,1,100,121158
1631709056.017490,191522.000,32048,2,PR,1,100,121097
1631709056.055898,191560.333,32066,3,PR,1,100,121042
1631709056.094307,191598.667,32066,3,PR,1,100,121088
1631709056.132715,191637.000,32066,3,PR,1,100,121199
1631709056.173795,191678.000,32086,2,PR,1,100,121214
1631709056.214876,191719.000,32086,2,PR,1,100,121197
1631709056.257960,191762.000,32102,3,PR,1,100,121170
1631709056.301044,191805.000,32102,3,PR,1,100,121159
1631709056.344128,191848.000,32102,3,PR,1,100,121152
1631709056.384708,191888.500,32121,2,PR,1,100,121134
1631709056.425287,191929.000,32121,2,PR,1,100,121181
1631709056.463695,191967.333,32139,3,PR,1,100,121160
1631709056.502104,192005.667,32139,3,PR,1,100,121110
1631709056.540512,192044.000,32139,3,PR,1,100,121151
1631709056.581592,192085.000,32158,2,PR,1,100,121171
1631709056.622673,192126.000,32158,2,PR,1,100,121142
1631709056.666091,192169.333,32174,3,PR,1,100,121138
1631709056.709509,192212.667,32174,3,PR,1,100,121224
1631709056.752927,192256.000,32174,3,PR,1,100,121178
1631709056.794008,192297.000,32193,2,PR,1,100,121095
1631709056.835088,192338.000,32193,2,PR,1,100,121048
1631709056.873162,192376.000,32211,3,PR,1,100,120879
1631709056.911237,192414.000,32211,3,PR,1,100,120849
1631709056.949311,192452.000,32211,3,PR,1,100,120816
1631709056.987385,192490.000,32230,3,PR,1,100,120745
1631709057.025460,192528.000,32230,3,PR,1,100,120768
1631709057.063534,192566.000,32230,3,PR,1,100,120663
1631709057.104614,192607.000,32248,2,PR,1,100,120560
1631709057.145695,192648.000,32248,2,PR,1,100,120384
1631709057.186775,192689.000,32266,2,PR,1,100,120240
1631709057.227855,192730.000,32266,2,PR,1,100,120171
1631709057.270940,192773.000,32284,3,PR,1,100,119938
1631709057.314024,192816.000,32284,3,PR,1,100,119853
1631709057.357108,192859.000,32284,3,PR,1,100,119826
1631709057.398188,192900.000,32303,2,PR,1,100,119840
1631709057.439268,192941.000,32303,2,PR,1,100,119979
1631709057.477677,192979.333,32321,3,PR,1,100,120415
1631709057.516085,193017.667,32321,3,PR,1,100,120751
1631709057.554494,193056.000,32321,3,PR,1,100,120786
1631709057.598246,193099.667,32340,3,PR,1,100,121055
1631709057.641998,193143.333,32340,3,PR,1,100,121272
1631709057.685750,193187.000,32340,3,PR,1,100,121340
1631709057.726329,193227.500,32356,2,PR,1,100,121384
1631709057.766909,193268.000,32356,2,PR,1,100,121437
1631709057.805317,193306.333,32375,3,PR,1,100,121541
1631709057.843725,193344.667,32375,3,PR,1,100,121508
1631709057.882134,193383.000,32375,3,PR,1,100,121368
1631709057.923214,193424.000,32393,2,PR,1,100,121316
1631709057.964294,193465.000,32393,2,PR,1,100,121146
1631709058.007713,193508.333,32412,3,PR,1,100,120832
1631709058.051131,193551.667,32412,3,PR,1,100,120517
1631709058.094549,193595.000,32412,3,PR,1,100,120672
1631709058.135128,193635.500,32431,2,PR,1,100,120903
1631709058.175708,193676.000,32431,2,PR,1,100,120866
1631709058.214450,193714.667,32448,3,PR,1,100,120711
1631709058.253192,193753.333,32448,3,PR,1,100,120732
1631709058.291935,193792.000,32448,3,PR,1,100,120894
1631709058.332013,193832.000,32466,2,PR,1,100,121075
1631709058.372091,193872.000,32466,2,PR,1,100,121096
1631709058.415176,193915.000,32485,3,PR,1,100,121165
1631709058.458260,193958.000,32485,3,PR,1,100,121251
1631709058.501344,194001.000,32485,3,PR,1,100,121239
1631709058.540086,194039.667,32509,3,PR,1,100,120904
1631709058.578829,194078.333,32509,3,PR,1,100,120550
1631709058.617571,194117.000,32509,3,PR,1,100,120206
1631709058.661657,194161.000,32527,3,PR,1,100,119891
1631709058.705743,194205.000,32527,3,PR,1,100,119672
1631709058.749830,194249.000,32527,3,PR,1,100,119545
1631709058.789908,194289.000,32546,2,PR,1,100,119502
1631709058.829986,194329.000,32546,2,PR,1,100,119379
1631709058.868395,194367.333,32562,3,PR,1,100,119383
1631709058.906803,194405.667,32562,3,PR,1,100,119475
1631709058.945211,194444.000,32562,3,PR,1,100,119623
1631709058.985791,194484.500,32581,2,PR,1,100,119887
1631709059.026370,194525.000,32581,2,PR,1,100,120096
1631709059.070122,194568.667,32600,3,PR,1,100,120266
1631709059.113874,194612.333,32600,3,PR,1,100,120385
1631709059.157627,194656.000,32600,3,PR,1,100,120487
1631709059.198206,194696.500,32619,2,PR,1,100,120548
1631709059.238785,194737.000,32619,2,PR,1,100,120624
1631709059.277194,194775.333,32635,3,PR,1,100,120672
1631709059.315602,194813.667,32635,3,PR,1,100,120656
1631709059.354010,194852.000,32635,3,PR,1,100,120617
1631709059.394590,194892.500,32654,2,PR,1,100,120647
1631709059.435169,194933.000,32654,2,PR,1,100,120598
1631709059.478587,194976.333,32672,3,PR,1,100,120519
1631709059.522005,195019.667,32672,3,PR,1,100,120447
1631709059.565423,195063.000,32672,3,PR,1,100,120413
1631709059.606003,195103.500,32691,2,PR,1,100,120409
1631709059.646582,195144.000,32691,2,PR,1,100,120478
1631709059.687662,195185.000,32707,2,PR,1,100,120486
1631709059.728743,195226.000,32707,2,PR,1,100,120552
1631709059.772829,195270.000,32726,3,PR,1,100,120573
1631709059.816915,195314.000,32726,3,PR,1,100,120578
1631709059.861001,195358.000,32726,3,PR,1,100,120564
1631709059.901580,195398.500,32744,2,PR,1,100,120605
1631709059.942160,195439.000,32744,2,PR,1,100,120599
1631709059.980234,195477.000,32763,3,PR,1,100,120569
1631709060.018308,195515.000,32763,3,PR,1,100,120558
1631709060.056383,195553.000,32763,3,PR,1,100,120603
1631709060.096962,195593.500,32782,2,PR,1,100,120637
1631709060.137542,195634.000,32782,2,PR,1,100,120644
1631709060.181294,195677.667,32799,3,PR,1,100,120650
1631709060.225046,195721.333,32799,3,PR,1,100,120643
1631709060.268798,195765.000,32799,3,PR,1,100,120664
1631709060.310379,195806.500,32817,2,PR,1,100,120657
1631709060.351960,195848.000,32817,2,PR,1,100,120634
1631709060.392540,195888.500,32836,2,PR,1,100,120632
1631709060.433119,195929.000,32836,2,PR,1,100,120619
1631709060.476871,195972.667,32854,3,PR,1,100,120639
1631709060.520623,196016.333,32854,3,PR,1,100,120639
1631709060.564376,196060.000,32854,3,PR,1,100,120651
1631709060.602450,196098.000,32871,3,PR,1,100,120644
1631709060.640524,196136.000,32871,3,PR,1,100,120664
1631709060.678599,196174.000,32871,3,PR,1,100,120684
1631709060.719679,196215.000,32889,2,PR,1,100,120687
1631709060.760759,196256.000,32889,2,PR,1,100,120707
1631709060.801840,196297.000,32908,2,PR,1,100,120702
1631709060.842920,196338.000,32908,2,PR,1,100,120685
1631709060.886672,196381.667,32926,3,PR,1,100,120707
1631709060.930424,196425.333,32926,3,PR,1,100,120689
1631709060.974176,196469.000,32926,3,PR,1,100,120683
1631709061.014255,196509.000,32945,2,PR,1,100,120685
1631709061.054333,196549.000,32945,2,PR,1,100,120695
1631709061.092741,196587.333,32962,3,PR,1,100,120692
1631709061.131150,196625.667,32962,3,PR,1,100,120652
1631709061.169558,196664.000,32962,3,PR,1,100,120646
1631709061.217652,196712.000,32981,2,PR,1,100,120615
1631709061.265746,196760.000,32981,2,PR,1,100,120614
1631709061.304489,196798.667,32999,3,PR,1,100,120630
1631709061.343231,196837.333,32999,3,PR,1,100,120620
1631709061.381974,196876.000,32999,3,PR,1,100,120644
1631709061.423054,196917.000,33018,2,PR,1,100,120633
1631709061.464134,196958.000,33018,2,PR,1,100,120696
1631709061.504713,196998.500,33034,2,PR,1,100,120723
1631709061.545293,197039.000,33034,2,PR,1,100,120716
1631709061.588711,197082.333,33053,3,PR,1,100,120715
1631709061.632129,197125.667,33053,3,PR,1,100,120720
1631709061.675547,197169.000,33053,3,PR,1,100,120736
1631709061.713955,197207.333,33071,3,PR,1,100,120719
1631709061.752364,197245.667,33071,3,PR,1,100,120721
1631709061.790772,197284.000,33071,3,PR,1,100,120719
1631709061.831853,197325.000,33090,2,PR,1,100,120703
1631709061.872933,197366.000,33090,2,PR,1,100,120697
1631709061.914013,197407.000,33106,2,PR,1,100,120687
1631709061.955093,197448.000,33106,2,PR,1,100,120686
1631709061.998846,197491.667,33126,3,PR,1,100,120702
1631709062.042598,197535.333,33126,3,PR,1,100,120719
1631709062.086350,197579.000,33126,3,PR,1,100,120730
1631709062.127430,197620.000,33144,2,PR,1,100,120734
1631709062.168510,197661.000,33144,2,PR,1,100,120733
1631709062.212263,197704.667,33163,3,PR,1,100,120733
1631709062.256015,197748.333,33163,3,PR,1,100,120759
1631709062.299767,197792.000,33163,3,PR,1,100,120781
1631709062.340346,197832.500,33181,2,PR,1,100,120786
1631709062.380926,197873.000,33181,2,PR,1,100,120797
1631709062.419000,197911.000,33198,3,PR,1,100,120774
1631709062.457074,197949.000,33198,3,PR,1,100,120784
1631709062.495149,197987.000,33198,3,PR,1,100,120774
1631709062.536730,198028.500,33216,2,PR,1,100,120773
1631709062.578311,198070.000,33216,2,PR,1,100,120775
1631709062.621730,198113.333,33235,3,PR,1,100,120762
1631709062.665148,198156.667,33235,3,PR,1,100,120770
1631709062.708566,198200.000,33235,3,PR,1,100,120768
1631709062.749646,198241.000,33253,2,PR,1,100,120768
1631709062.790726,198282.000,33253,2,PR,1,100,120772
1631709062.831306,198322.500,33270,2,PR,1,100,120770
1631709062.871885,198363.000,33270,2,PR,1,100,120780
1631709062.915303,198406.333,33288,3,PR,1,100,120779
1631709062.958721,198449.667,33288,3,PR,1,100,120783
1631709063.002140,198493.000,33288,3,PR,1,100,120794
1631709063.043220,198534.000,33308,2,PR,1,100,120800
1631709063.084300,198575.000,33308,2,PR,1,100,120811
1631709063.122709,198613.333,33326,3,PR,1,100,120800
1631709063.161117,198651.667,33326,3,PR,1,100,120810
1631709063.199525,198690.000,33326,3,PR,1,100,120797
1631709063.240105,198730.500,33345,2,PR,1,100,120802
1631709063.280684,198771.000,33345,2,PR,1,100,120782
1631709063.324436,198814.667,33361,3,PR,1,100,120804
1631709063.368188,198858.333,33361,3,PR,1,100,120809
1631709063.411940,198902.000,33361,3,PR,1,100,120818
1631709063.453021,198943.000,33380,2,PR,1,100,120825
1631709063.494101,198984.000,33380,2,PR,1,100,120814
1631709063.535181,199025.000,33398,2,PR,1,100,120825
1631709063.576262,199066.000,33398,2,PR,1,100,120836
1631709063.617091,199106.750,33418,4,PR,1,100,120851
1631709063.657921,199147.500,33418,4,PR,1,100,120857
1631709063.698751,199188.250,33418,4,PR,1,100,120873
1631709063.739581,199229.000,33418,4,PR,1,100,120855
1631709063.782999,199272.333,33436,3,PR,1,100,120878
1631709063.826417,199315.667,33436,3,PR,1,100,120892
1631709063.869835,199359.000,33436,3,PR,1,100,120905
1631709063.910414,199399.500,33455,2,PR,1,100,120901
1631709063.950994,199440.000,33455,2,PR,1,100,120913
1631709063.989402,199478.333,33472,3,PR,1,100,120907
1631709064.027811,199516.667,33472,3,PR,1,100,120920
1631709064.066219,199555.000,33472,3,PR,1,100,120948
1631709064.107299,199596.000,33491,2,PR,1,100,120967
1631709064.148380,199637.000,33491,2,PR,1,100,120999
1631709064.192132,199680.667,33509,3,PR,1,100,121014
1631709064.235884,199724.333,33509,3,PR,1,100,121025
1631709064.279636,199768.000,33509,3,PR,1,100,121059
1631709064.319714,199808.000,33528,2,PR,1,100,121094
1631709064.359793,199848.000,33528,2,PR,1,100,121152
1631709064.403545,199891.667,33546,3,PR,1,100,121240
1631709064.447297,199935.333,33546,3,PR,1,100,121337
1631709064.491049,199979.000,33546,3,PR,1,100,121405
1631709064.532630,200020.500,33563,2,PR,1,100,121453
1631709064.574212,200062.000,33563,2,PR,1,100,121487
1631709064.612620,200100.333,33581,3,PR,1,100,121514
1631709064.651029,200138.667,33581,3,PR,1,100,121516
1631709064.689437,200177.000,33581,3,PR,1,100,121564
1631709064.729515,200217.000,33600,2,PR,1,100,121600
1631709064.769593,200257.000,33600,2,PR,1,100,121590
1631709064.808002,200295.333,33618,3,PR,1,100,121589
1631709064.846410,200333.667,33618,3,PR,1,100,121612
1631709064.884819,200372.000,33618,3,PR,1,100,121606
1631709064.922225,200409.333,33635,3,PR,1,100,121648
1631709064.959632,200446.667,33635,3,PR,1,100,121662
1631709064.997038,200484.000,33635,3,PR,1,100,121682
1631709065.038619,200525.500,33654,2,PR,1,100,121689
1631709065.080201,200567.000,33654,2,PR,1,100,121703
1631709065.118275,200605.000,33673,3,PR,1,100,121707
1631709065.156349,200643.000,33673,3,PR,1,100,121730
1631709065.194424,200681.000,33673,3,PR,1,100,121746
1631709065.236005,200722.500,33691,2,PR,1,100,121748
1631709065.277586,200764.000,33691,2,PR,1,100,121741
1631709065.315995,200802.333,33708,3,PR,1,100,121728
1631709065.354403,200840.667,33708,3,PR,1,100,121754
1631709065.392812,200879.000,33708,3,PR,1,100,121748
1631709065.433892,200920.000,33726,2,PR,1,100,121724
1631709065.474972,200961.000,33726,2,PR,1,100,121688
1631709065.512044,200998.000,33745,3,PR,1,100,121689
1631709065.549117,201035.000,33745,3,PR,1,100,121675
1631709065.586190,201072.000,33745,3,PR,1,100,121703
1631709065.624932,201110.667,33763,3,PR,1,100,121717
1631709065.663674,201149.333,33763,3,PR,1,100,121717
1631709065.702416,201188.000,33763,3,PR,1,100,121748
1631709065.742996,201228.500,33782,2,PR,1,100,121772
1631709065.783575,201269.000,33782,2,PR,1,100,121787
1631709065.821650,201307.000,33798,3,PR,1,100,121769
1631709065.859724,201345.000,33798,3,PR,1,100,121770
1631709065.897798,201383.000,33798,3,PR,1,100,121803
1631709065.938378,201423.500,33817,2,PR,1,100,121809
1631709065.978957,201464.000,33817,2,PR,1,100,121798
1631709066.017031,201502.000,33836,3,PR,1,100,121777
1631709066.055106,201540.000,33836,3,PR,1,100,121781
1631709066.093180,201578.000,33836,3,PR,1,100,121810
1631709066.131922,201616.667,33855,3,PR,1,100,121812
1631709066.170665,201655.333,33855,3,PR,1,100,121808
1631709066.209407,201694.000,33855,3,PR,1,100,121782
1631709066.250488,201735.000,33871,2,PR,1,100,121802
1631709066.291568,201776.000,33871,2,PR,1,100,121799
1631709066.329642,201814.000,33890,3,PR,1,100,121809
1631709066.367717,201852.000,33890,3,PR,1,100,121807
1631709066.405791,201890.000,33890,3,PR,1,100,121795
1631709066.446871,201931.000,33908,2,PR,1,100,121848
1631709066.487952,201972.000,33908,2,PR,1,100,121848
1631709066.525692,202009.667,33927,3,PR,1,100,121872
1631709066.563432,202047.333,33927,3,PR,1,100,121872
1631709066.601173,202085.000,33927,3,PR,1,100,121855
1631709066.641251,202125.000,33945,2,PR,1,100,121884
1631709066.681329,202165.000,33945,2,PR,1,100,121876
1631709066.724748,202208.333,33962,3,PR,1,100,121935
1631709066.768166,202251.667,33962,3,PR,1,100,121929
1631709066.811584,202295.000,33962,3,PR,1,100,121917
1631709066.844649,202328.000,33980,2,PR,1,100,121964
1631709066.877713,202361.000,33980,2,PR,1,100,121945
1631709066.921465,202404.667,34000,3,PR,1,100,121924
1631709066.965218,202448.333,34000,3,PR,1,100,121902
1631709067.008970,202492.000,34000,3,PR,1,100,121879
1631709067.042034,202525.000,34018,2,PR,1,100,121902
1631709067.075099,202558.000,34018,2,PR,1,100,121894
1631709067.118517,202601.333,34034,3,PR,1,100,121893
1631709067.161935,202644.667,34034,3,PR,1,100,121843
1631709067.205354,202688.000,34034,3,PR,1,100,121762
1631709067.243762,202726.333,34052,3,PR,1,100,121776
1631709067.282170,202764.667,34052,3,PR,1,100,121750
1631709067.320579,202803.000,34052,3,PR,1,100,121756
1631709067.361158,202843.500,34071,2,PR,1,100,121747
1631709067.401737,202884.000,34071,2,PR,1,100,121750
1631709067.440480,202922.667,34089,3,PR,1,100,121772
1631709067.479222,202961.333,34089,3,PR,1,100,121764
1631709067.517965,203000.000,34089,3,PR,1,100,121763
1631709067.555371,203037.333,34108,3,PR,1,100,121758
1631709067.592777,203074.667,34108,3,PR,1,100,121763
1631709067.630184,203112.000,34108,3,PR,1,100,121767
1631709067.671765,203153.500,34124,2,PR,1,100,121757
1631709067.713346,203195.000,34124,2,PR,1,100,121770
1631709067.751421,203233.000,34143,3,PR,1,100,121753
1631709067.789495,203271.000,34143,3,PR,1,100,121743
1631709067.827569,203309.000,34143,3,PR,1,100,121759
1631709067.868650,203350.000,34161,2,PR,1,100,121749
1631709067.909730,203391.000,34161,2,PR,1,100,121733
1631709067.948138,203429.333,34181,3,PR,1,100,121726
1631709067.986547,203467.667,34181,3,PR,1,100,121743
1631709068.024955,203506.000,34181,3,PR,1,100,121777
1631709068.063030,203544.000,34197,3,PR,1,100,121816
1631709068.101104,203582.000,34197,3,PR,1,100,121862
1631709068.139179,203620.000,34197,3,PR,1,100,121886
1631709068.179257,203660.000,34216,2,PR,1,100,121843
1631709068.219335,203700.000,34216,2,PR,1,100,121823
1631709068.257744,203738.333,34234,3,PR,1,100,121812
1631709068.296152,203776.667,34234,3,PR,1,100,121778
1631709068.334560,203815.000,34234,3,PR,1,100,121763
1631709068.375641,203856.000,34253,2,PR,1,100,121702
1631709068.416721,203897.000,34253,2,PR,1,100,121690
1631709068.455129,203935.333,34271,3,PR,1,100,121714
1631709068.493538,203973.667,34271,3,PR,1,100,121762
1631709068.531946,204012.000,34271,3,PR,1,100,121804
1631709068.570020,204050.000,34288,3,PR,1,100,121868
1631709068.608095,204088.000,34288,3,PR,1,100,121941
1631709068.646169,204126.000,34288,3,PR,1,100,122001
1631709068.686749,204166.500,34306,2,PR,1,100,122055
1631709068.727328,204207.000,34306,2,PR,1,100,122110
1631709068.768659,204248.250,34328,4,PR,1,100,122176
1631709068.809989,204289.500,34328,4,PR,1,100,122266
1631709068.851320,204330.750,34328,4,PR,1,100,122338
1631709068.892651,204372.000,34328,4,PR,1,100,122374
1631709068.931059,204410.333,34347,3,PR,1,100,122346
1631709068.969468,204448.667,34347,3,PR,1,100,122322
1631709069.007876,204487.000,34347,3,PR,1,100,122300
1631709069.048455,204527.500,34366,2,PR,1,100,122267
1631709069.089035,204568.000,34366,2,PR,1,100,122240
1631709069.127443,204606.333,34384,3,PR,1,100,122209
1631709069.165852,204644.667,34384,3,PR,1,100,122160
1631709069.204260,204683.000,34384,3,PR,1,100,122086
1631709069.241666,204720.333,34401,3,PR,1,100,122058
1631709069.279073,204757.667,34401,3,PR,1,100,122024
1631709069.316479,204795.000,34401,3,PR,1,100,122003
1631709069.357559,204836.000,34419,2,PR,1,100,121988
1631709069.398640,204877.000,34419,2,PR,1,100,121980
1631709069.436714,204915.000,34438,3,PR,1,100,122018
1631709069.474789,204953.000,34438,3,PR,1,100,122003
1631709069.512863,204991.000,34438,3,PR,1,100,121995
1631709069.554444,205032.500,34456,2,PR,1,100,121995
1631709069.596025,205074.000,34456,2,PR,1,100,121973
1631709069.634100,205112.000,34475,3,PR,1,100,121957
1631709069.672174,205150.000,34475,3,PR,1,100,121909
1631709069.710249,205188.000,34475,3,PR,1,100,121922
1631709069.748323,205226.000,34491,3,PR,1,100,121960
1631709069.786397,205264.000,34491,3,PR,1,100,121924
1631709069.824472,205302.000,34491,3,PR,1,100,121887
1631709069.865051,205342.500,34510,2,PR,1,100,121853
1631709069.905631,205383.000,34510,2,PR,1,100,121839
1631709069.943705,205421.000,34529,3,PR,1,100,121901
1631709069.981779,205459.000,34529,3,PR,1,100,121959
1631709070.019854,205497.000,34529,3,PR,1,100,122059
1631709070.060433,205537.500,34548,2,PR,1,100,121957
1631709070.101012,205578.000,34548,2,PR,1,100,121985
1631709070.139087,205616.000,34564,3,PR,1,100,122105
1631709070.177161,205654.000,34564,3,PR,1,100,122147
1631709070.215236,205692.000,34564,3,PR,1,100,122217
1631709070.256316,205733.000,34583,2,PR,1,100,122277
1631709070.297396,205774.000,34583,2,PR,1,100,122223
1631709070.335471,205812.000,34601,3,PR,1,100,122226
1631709070.373545,205850.000,34601,3,PR,1,100,122270
1631709070.411619,205888.000,34601,3,PR,1,100,122326
1631709070.452700,205929.000,34620,2,PR,1,100,122366
1631709070.493780,205970.000,34620,2,PR,1,100,122349
1631709070.532188,206008.333,34638,3,PR,1,100,122306
1631709070.570597,206046.667,34638,3,PR,1,100,122262
1631709070.609005,206085.000,34638,3,PR,1,100,122209
1631709070.650085,206126.000,34655,2,PR,1,100,122146
1631709070.691166,206167.000,34655,2,PR,1,100,122089
1631709070.729574,206205.333,34673,3,PR,1,100,122098
1631709070.767982,206243.667,34673,3,PR,1,100,122069
1631709070.806391,206282.000,34673,3,PR,1,100,122079
1631709070.849475,206325.000,34693,3,PR,1,100,122076
1631709070.892559,206368.000,34693,3,PR,1,100,122042
1631709070.935643,206411.000,34693,3,PR,1,100,122008
1631709070.968207,206443.500,34711,2,PR,1,100,121971
1631709071.000771,206476.000,34711,2,PR,1,100,121934
1631709071.043855,206519.000,34728,3,PR,1,100,121879
1631709071.086939,206562.000,34728,3,PR,1,100,121808
1631709071.130023,206605.000,34728,3,PR,1,100,121818
1631709071.163589,206638.500,34746,2,PR,1,100,121803
1631709071.197155,206672.000,34746,2,PR,1,100,121786
1631709071.240907,206715.667,34765,3,PR,1,100,121802
1631709071.284659,206759.333,34765,3,PR,1,100,121778
1631709071.328411,206803.000,34765,3,PR,1,100,121802
1631709071.366485,206841.000,34783,3,PR,1,100,121833
1631709071.404560,206879.000,34783,3,PR,1,100,121829
1631709071.442634,206917.000,34783,3,PR,1,100,121799
1631709071.483715,206958.000,34800,2,PR,1,100,121829
1631709071.524795,206999.000,34800,2,PR,1,100,121841
1631709071.562869,207037.000,34818,3,PR,1,100,121836
1631709071.600944,207075.000,34818,3,PR,1,100,121838
1631709071.639018,207113.000,34818,3,PR,1,100,121833
1631709071.679096,207153.000,34837,2,PR,1,100,121849
1631709071.719175,207193.000,34837,2,PR,1,100,121905
1631709071.758251,207232.000,34855,3,PR,1,100,121895
1631709071.797327,207271.000,34855,3,PR,1,100,121903
1631709071.836404,207310.000,34855,3,PR,1,100,121899
1631709071.873810,207347.333,34875,3,PR,1,100,121919
1631709071.911217,207384.667,34875,3,PR,1,100,121941
1631709071.948623,207422.000,34875,3,PR,1,100,121958
1631709071.990204,207463.500,34891,2,PR,1,100,121952
1631709072.031785,207505.000,34891,2,PR,1,100,121949
1631709072.069526,207542.667,34910,3,PR,1,100,121962
1631709072.107266,207580.333,34910,3,PR,1,100,121945
1631709072.145007,207618.000,34910,3,PR,1,100,121965
1631709072.185586,207658.500,34928,2,PR,1,100,121941
1631709072.226166,207699.000,34928,2,PR,1,100,121869
1631709072.264908,207737.667,34947,3,PR,1,100,121876
1631709072.303650,207776.333,34947,3,PR,1,100,121852
1631709072.342393,207815.000,34947,3,PR,1,100,121870
1631709072.380467,207853.000,34963,3,PR,1,100,121871
1631709072.418541,207891.000,34963,3,PR,1,100,121869
1631709072.456616,207929.000,34963,3,PR,1,100,121843
1631709072.497195,207969.500,34982,2,PR,1,100,121838
1631709072.537774,208010.000,34982,2,PR,1,100,121827
1631709072.575849,208048.000,35000,3,PR,1,100,121817
1631709072.613923,208086.000,35000,3,PR,1,100,121822
1631709072.651998,208124.000,35000,3,PR,1,100,121789
1631709072.692577,208164.500,35019,2,PR,1,100,121807
1631709072.733156,208205.000,35019,2,PR,1,100,121774
1631709072.771899,208243.667,35037,3,PR,1,100,121736
1631709072.810641,208282.333,35037,3,PR,1,100,121747
1631709072.849383,208321.000,35037,3,PR,1,100,121718
1631709072.889963,208361.500,35055,2,PR,1,100,121737
1631709072.930542,208402.000,35055,2,PR,1,100,121752
1631709072.968282,208439.667,35073,3,PR,1,100,121737
1631709073.006023,208477.333,35073,3,PR,1,100,121748
1631709073.043763,208515.000,35073,3,PR,1,100,121723
1631709073.084843,208556.000,35092,2,PR,1,100,121754
1631709073.125924,208597.000,35092,2,PR,1,100,121754
1631709073.163998,208635.000,35110,3,PR,1,100,121755
1631709073.202073,208673.000,35110,3,PR,1,100,121759
1631709073.240147,208711.000,35110,3,PR,1,100,121763
1631709073.280726,208751.500,35127,2,PR,1,100,121780
1631709073.321306,208792.000,35127,2,PR,1,100,121779
1631709073.359714,208830.333,35145,3,PR,1,100,121800
1631709073.398122,208868.667,35145,3,PR,1,100,121794
1631709073.436531,208907.000,35145,3,PR,1,100,121785
1631709073.479949,208950.333,35164,3,PR,1,100,121791
1631709073.523367,208993.667,35164,3,PR,1,100,121767
1631709073.566785,209037.000,35164,3,PR,1,100,121796
1631709073.599349,209069.500,35182,2,PR,1,100,121766
1631709073.631913,209102.000,35182,2,PR,1,100,121774
1631709073.674997,209145.000,35199,3,PR,1,100,121799
1631709073.718081,209188.000,35199,3,PR,1,100,121801
1631709073.761165,209231.000,35199,3,PR,1,100,121812
1631709073.794230,209264.000,35218,2,PR,1,100,121791
1631709073.827294,209297.000,35218,2,PR,1,100,121801
1631709073.866771,209336.400,35242,5,PR,1,100,121829
1631709073.906249,209375.800,35242,5,PR,1,100,121831
1631709073.945726,209415.200,35242,5,PR,1,100,121844
1631709073.985203,209454.600,35242,5,PR,1,100,121832
1631709074.024680,209494.000,35242,5,PR,1,100,121875
1631709074.065760,209535.000,35260,2,PR,1,100,121875
1631709074.106841,209576.000,35260,2,PR,1,100,121886
1631709074.144915,209614.000,35279,3,PR,1,100,121842
1631709074.182990,209652.000,35279,3,PR,1,100,121840
1631709074.221064,209690.000,35279,3,PR,1,100,121863
1631709074.261643,209730.500,35297,2,PR,1,100,121853
1631709074.302222,209771.000,35297,2,PR,1,100,121856
1631709074.340297,209809.000,35316,3,PR,1,100,121843
1631709074.378371,209847.000,35316,3,PR,1,100,121871
1631709074.416446,209885.000,35316,3,PR,1,100,121892
1631709074.458027,209926.500,35332,2,PR,1,100,121884
1631709074.499608,209968.000,35332,2,PR,1,100,121879
1631709074.537683,210006.000,35351,3,PR,1,100,121899
1631709074.575757,210044.000,35351,3,PR,1,100,121893
1631709074.613832,210082.000,35351,3,PR,1,100,121882
1631709074.654912,210123.000,35369,2,PR,1,100,121886
1631709074.695992,210164.000,35369,2,PR,1,100,121879
1631709074.733398,210201.333,35388,3,PR,1,100,121895
1631709074.770805,210238.667,35388,3,PR,1,100,121909
1631709074.808211,210276.000,35388,3,PR,1,100,121908
1631709074.851629,210319.333,35405,3,PR,1,100,121882
1631709074.895048,210362.667,35405,3,PR,1,100,121888
1631709074.938466,210406.000,35405,3,PR,1,100,121889
1631709074.971530,210439.000,35424,2,PR,1,100,121889
1631709075.004595,210472.000,35424,2,PR,1,100,121871
1631709075.048681,210516.000,35442,3,PR,1,100,121892
1631709075.092767,210560.000,35442,3,PR,1,100,121913
1631709075.136854,210604.000,35442,3,PR,1,100,121925
1631709075.169918,210637.000,35461,2,PR,1,100,121909
1631709075.202983,210670.000,35461,2,PR,1,100,121909
1631709075.246067,210713.000,35479,3,PR,1,100,121896
1631709075.289151,210756.000,35479,3,PR,1,100,121896
1631709075.332235,210799.000,35479,3,PR,1,100,121902
1631709075.369976,210836.667,35496,3,PR,1,100,121890
1631709075.407716,210874.333,35496,3,PR,1,100,121912
1631709075.445457,210912.000,35496,3,PR,1,100,121939
1631709075.487038,210953.500,35514,2,PR,1,100,121891
1631709075.528619,210995.000,35514,2,PR,1,100,121925
1631709075.566694,211033.000,35533,3,PR,1,100,121914
1631709075.604768,211071.000,35533,3,PR,1,100,121930
1631709075.642842,211109.000,35533,3,PR,1,100,121938
1631709075.683923,211150.000,35551,2,PR,1,100,121902
1631709075.725003,211191.000,35551,2,PR,1,100,121921
1631709075.763077,211229.000,35569,3,PR,1,100,121917
1631709075.801152,211267.000,35569,3,PR,1,100,121900
1631709075.839226,211305.000,35569,3,PR,1,100,121909
1631709075.877301,211343.000,35587,3,PR,1,100,121925
1631709075.915375,211381.000,35587,3,PR,1,100,121930
1631709075.953449,211419.000,35587,3,PR,1,100,121917
1631709075.994029,211459.500,35606,2,PR,1,100,121940
1631709076.034608,211500.000,35606,2,PR,1,100,121935
1631709076.073350,211538.667,35624,3,PR,1,100,121969
1631709076.112093,211577.333,35624,3,PR,1,100,121935
1631709076.150835,211616.000,35624,3,PR,1,100,121944
1631709076.190913,211656.000,35643,2,PR,1,100,121924
1631709076.230992,211696.000,35643,2,PR,1,100,121946
1631709076.269066,211734.000,35659,3,PR,1,100,121951
1631709076.307141,211772.000,35659,3,PR,1,100,121928
1631709076.345215,211810.000,35659,3,PR,1,100,121952
1631709076.382955,211847.667,35678,3,PR,1,100,121931
1631709076.420696,211885.333,35678,3,PR,1,100,121956
1631709076.458436,211923.000,35678,3,PR,1,100,121945
1631709076.499516,211964.000,35696,2,PR,1,100,121924
1631709076.540597,212005.000,35696,2,PR,1,100,121957
1631709076.579005,212043.333,35715,3,PR,1,100,121931
1631709076.617414,212081.667,35715,3,PR,1,100,121960
1631709076.655822,212120.000,35715,3,PR,1,100,121954
1631709076.696902,212161.000,35731,2,PR,1,100,121925
1631709076.737983,212202.000,35731,2,PR,1,100,121962
1631709076.776057,212240.000,35751,3,PR,1,100,121959
1631709076.814131,212278.000,35751,3,PR,1,100,121943
1631709076.852206,212316.000,35751,3,PR,1,100,121918
1631709076.889946,212353.667,35769,3,PR,1,100,121902
1631709076.927687,212391.333,35769,3,PR,1,100,121943
1631709076.965427,212429.000,35769,3,PR,1,100,121955
1631709077.006507,212470.000,35788,2,PR,1,100,121954
1631709077.047588,212511.000,35788,2,PR,1,100,121950
1631709077.085996,212549.333,35804,3,PR,1,100,121951
1631709077.124404,212587.667,35804,3,PR,1,100,121980
1631709077.162813,212626.000,35804,3,PR,1,100,121975
1631709077.203392,212666.500,35823,2,PR,1,100,121971
1631709077.243971,212707.000,35823,2,PR,1,100,121948
1631709077.282046,212745.000,35841,3,PR,1,100,121956
1631709077.320120,212783.000,35841,3,PR,1,100,121951
1631709077.358195,212821.000,35841,3,PR,1,100,121939
1631709077.398273,212861.000,35860,2,PR,1,100,121932
1631709077.438351,212901.000,35860,2,PR,1,100,121909
1631709077.476760,212939.333,35878,3,PR,1,100,121938
1631709077.515168,212977.667,35878,3,PR,1,100,121935
1631709077.553576,213016.000,35878,3,PR,1,100,121961
1631709077.594657,213057.000,35895,2,PR,1,100,121955
1631709077.635737,213098.000,35895,2,PR,1,100,121920
1631709077.674479,213136.667,35913,3,PR,1,100,121961
1631709077.713222,213175.333,35913,3,PR,1,100,121956
1631709077.751964,213214.000,35913,3,PR,1,100,121977
1631709077.792543,213254.500,35933,2,PR,1,100,121975
1631709077.833123,213295.000,35933,2,PR,1,100,121969
1631709077.876875,213338.667,35951,3,PR,1,100,121956
1631709077.920627,213382.333,35951,3,PR,1,100,121938
1631709077.964379,213426.000,35951,3,PR,1,100,121957
1631709078.001786,213463.333,35968,3,PR,1,100,121975
1631709078.039192,213500.667,35968,3,PR,1,100,121970
1631709078.076599,213538.000,35968,3,PR,1,100,121953
1631709078.118180,213579.500,35986,2,PR,1,100,121952
1631709078.159761,213621.000,35986,2,PR,1,100,121958
1631709078.197501,213658.667,36005,3,PR,1,100,121977
1631709078.235242,213696.333,36005,3,PR,1,100,121972
1631709078.272982,213734.000,36005,3,PR,1,100,121949
1631709078.314564,213775.500,36023,2,PR,1,100,121960
1631709078.356145,213817.000,36023,2,PR,1,100,121956
1631709078.394219,213855.000,36042,3,PR,1,100,121947
1631709078.432294,213893.000,36042,3,PR,1,100,121929
1631709078.470368,213931.000,36042,3,PR,1,100,121938
1631709078.508442,213969.000,36058,3,PR,1,100,121970
1631709078.546517,214007.000,36058,3,PR,1,100,121970
1631709078.584591,214045.000,36058,3,PR,1,100,121965
1631709078.625170,214085.500,36077,2,PR,1,100,121941
1631709078.665750,214126.000,36077,2,PR,1,100,121948
1631709078.704492,214164.667,36096,3,PR,1,100,121990
1631709078.743235,214203.333,36096,3,PR,1,100,121993
1631709078.781977,214242.000,36096,3,PR,1,100,121996
1631709078.822556,214282.500,36115,2,PR,1,100,121990
1631709078.863136,214323.000,36115,2,PR,1,100,122001
1631709078.901544,214361.333,36131,3,PR,1,100,122001
1631709078.939952,214399.667,36131,3,PR,1,100,122002
1631709078.978361,214438.000,36131,3,PR,1,100,121998
1631709079.018940,214478.500,36155,4,PR,1,100,121980
1631709079.059519,214519.000,36155,4,PR,1,100,121994
1631709079.100099,214559.500,36155,4,PR,1,100,121997
1631709079.140678,214600.000,36155,4,PR,1,100,121982
1631709079.173242,214632.500,36173,2,PR,1,100,122000
1631709079.205805,214665.000,36173,2,PR,1,100,121998
1631709079.249557,214708.667,36192,3,PR,1,100,122012
1631709079.293310,214752.333,36192,3,PR,1,100,122012
1631709079.337062,214796.000,36192,3,PR,1,100,122026
1631709079.370126,214829.000,36210,2,PR,1,100,122026
1631709079.403191,214862.000,36210,2,PR,1,100,122015
1631709079.446943,214905.667,36229,3,PR,1,100,122058
1631709079.490695,214949.333,36229,3,PR,1,100,122043
1631709079.534447,214993.000,36229,3,PR,1,100,122033
1631709079.572522,215031.000,36245,3,PR,1,100,122029
1631709079.610596,215069.000,36245,3,PR,1,100,122007
1631709079.648671,215107.000,36245,3,PR,1,100,122037
1631709079.689751,215148.000,36264,2,PR,1,100,122049
1631709079.730831,215189.000,36264,2,PR,1,100,122051
1631709079.768906,215227.000,36283,3,PR,1,100,122037
1631709079.806980,215265.000,36283,3,PR,1,100,122043
1631709079.845054,215303.000,36283,3,PR,1,100,122061
1631709079.886135,215344.000,36302,2,PR,1,100,122066
1631709079.927215,215385.000,36302,2,PR,1,100,122076
1631709079.965289,215423.000,36320,3,PR,1,100,122067
1631709080.003364,215461.000,36320,3,PR,1,100,122074
1631709080.041438,215499.000,36320,3,PR,1,100,122097
1631709080.079513,215537.000,36337,3,PR,1,100,122091
1631709080.117587,215575.000,36337,3,PR,1,100,122089
1631709080.155662,215613.000,36337,3,PR,1,100,122065
1631709080.196742,215654.000,36355,2,PR,1,100,122071
1631709080.237822,215695.000,36355,2,PR,1,100,122074
1631709080.275563,215732.667,36374,3,PR,1,100,122075
1631709080.313303,215770.333,36374,3,PR,1,100,122074
1631709080.351043,215808.000,36374,3,PR,1,100,122072
1631709080.392625,215849.500,36392,2,PR,1,100,122085
1631709080.434206,215891.000,36392,2,PR,1,100,122091
1631709080.472614,215929.333,36409,3,PR,1,100,122092
1631709080.511023,215967.667,36409,3,PR,1,100,122104
1631709080.549431,216006.000,36409,3,PR,1,100,122097
1631709080.590511,216047.000,36427,2,PR,1,100,122118
1631709080.631592,216088.000,36427,2,PR,1,100,122115
1631709080.669332,216125.667,36447,3,PR,1,100,122124
1631709080.707072,216163.333,36447,3,PR,1,100,122131
1631709080.744813,216201.000,36447,3,PR,1,100,122137
1631709080.783221,216239.333,36465,3,PR,1,100,122140
1631709080.821630,216277.667,36465,3,PR,1,100,122124
1631709080.860038,216316.000,36465,3,PR,1,100,122122
1631709080.900116,216356.000,36482,2,PR,1,100,122127
1631709080.940195,216396.000,36482,2,PR,1,100,122132
1631709080.979271,216435.000,36500,3,PR,1,100,122126
1631709081.018347,216474.000,36500,3,PR,1,100,122140
1631709081.057424,216513.000,36500,3,PR,1,100,122158
1631709081.098003,216553.500,36519,2,PR,1,100,122159
1631709081.138582,216594.000,36519,2,PR,1,100,122144
1631709081.176657,216632.000,36537,3,PR,1,100,122153
1631709081.214731,216670.000,36537,3,PR,1,100,122168
1631709081.252805,216708.000,36537,3,PR,1,100,122191
1631709081.291214,216746.333,36556,3,PR,1,100,122194
1631709081.329622,216784.667,36556,3,PR,1,100,122169
1631709081.368031,216823.000,36556,3,PR,1,100,122189
1631709081.408610,216863.500,36572,2,PR,1,100,122202
1631709081.449189,216904.000,36572,2,PR,1,100,122207
1631709081.486930,216941.667,36591,3,PR,1,100,122213
1631709081.524670,216979.333,36591,3,PR,1,100,122182
1631709081.562411,217017.000,36591,3,PR,1,100,122182
1631709081.603992,217058.500,36609,2,PR,1,100,122210
1631709081.645573,217100.000,36609,2,PR,1,100,122202
1631709081.682980,217137.333,36629,3,PR,1,100,122210
1631709081.720386,217174.667,36629,3,PR,1,100,122197
1631709081.757792,217212.000,36629,3,PR,1,100,122225
1631709081.799374,217253.500,36645,2,PR,1,100,122239
1631709081.840955,217295.000,36645,2,PR,1,100,122197
1631709081.879029,217333.000,36664,3,PR,1,100,122230
1631709081.917104,217371.000,36664,3,PR,1,100,122235
1631709081.955178,217409.000,36664,3,PR,1,100,122232
1631709081.995758,217449.500,36682,2,PR,1,100,122238
1631709082.036337,217490.000,36682,2,PR,1,100,122231
1631709082.075079,217528.667,36701,3,PR,1,100,122235
1631709082.113822,217567.333,36701,3,PR,1,100,122236
1631709082.152564,217606.000,36701,3,PR,1,100,122228
1631709082.195982,217649.333,36719,3,PR,1,100,122232
1631709082.239400,217692.667,36719,3,PR,1,100,122217
1631709082.282819,217736.000,36719,3,PR,1,100,122219
1631709082.315382,217768.500,36736,2,PR,1,100,122215
1631709082.347946,217801.000,36736,2,PR,1,100,122194
1631709082.391364,217844.333,36754,3,PR,1,100,122205
1631709082.434782,217887.667,36754,3,PR,1,100,122197
1631709082.478200,217931.000,36754,3,PR,1,100,122198
1631709082.515941,217968.667,36773,3,PR,1,100,122208
1631709082.553681,218006.333,36773,3,PR,1,100,122178
1631709082.591422,218044.000,36773,3,PR,1,100,122211
1631709082.633003,218085.500,36791,2,PR,1,100,122110
1631709082.674584,218127.000,36791,2,PR,1,100,121981
1631709082.712324,218164.667,36809,3,PR,1,100,121686
1631709082.750065,218202.333,36809,3,PR,1,100,121250
1631709082.787805,218240.000,36809,3,PR,1,100,120926
1631709082.828886,218281.000,36827,2,PR,1,100,120510
1631709082.869966,218322.000,36827,2,PR,1,100,120211
1631709082.908040,218360.000,36846,3,PR,1,100,120312
1631709082.946115,218398.000,36846,3,PR,1,100,120461
1631709082.984189,218436.000,36846,3,PR,1,100,120813
1631709083.021930,218473.667,36864,3,PR,1,100,121147
1631709083.059670,218511.333,36864,3,PR,1,100,121487
1631709083.097410,218549.000,36864,3,PR,1,100,121843
1631709083.138491,218590.000,36883,2,PR,1,100,122296
1631709083.179571,218631.000,36883,2,PR,1,100,122565
1631709083.217645,218669.000,36899,3,PR,1,100,122700
1631709083.255720,218707.000,36899,3,PR,1,100,122750
1631709083.293794,218745.000,36899,3,PR,1,100,122852
1631709083.334874,218786.000,36918,2,PR,1,100,122913
1631709083.375955,218827.000,36918,2,PR,1,100,122957
1631709083.413695,218864.667,36936,3,PR,1,100,122990
1631709083.451436,218902.333,36936,3,PR,1,100,122980
1631709083.489176,218940.000,36936,3,PR,1,100,123002
1631709083.527250,218978.000,36955,3,PR,1,100,122969
1631709083.565325,219016.000,36955,3,PR,1,100,122936
1631709083.603399,219054.000,36955,3,PR,1,100,122904
1631709083.644480,219095.000,36972,2,PR,1,100,122783
1631709083.685560,219136.000,36972,2,PR,1,100,122685
1631709083.723634,219174.000,36991,3,PR,1,100,122635
1631709083.761708,219212.000,36991,3,PR,1,100,122597
1631709083.799783,219250.000,36991,3,PR,1,100,122595
1631709083.840863,219291.000,37009,2,PR,1,100,122561
1631709083.881943,219332.000,37009,2,PR,1,100,122556
1631709083.920018,219370.000,37028,3,PR,1,100,122574
1631709083.958092,219408.000,37028,3,PR,1,100,122582
1631709083.996167,219446.000,37028,3,PR,1,100,122573
1631709084.036245,219486.000,37045,2,PR,1,100,122555
1631709084.076323,219526.000,37045,2,PR,1,100,122568
1631709084.117404,219567.000,37067,4,PR,1,100,122596
1631709084.158484,219608.000,37067,4,PR,1,100,122594
1631709084.199564,219649.000,37067,4,PR,1,100,122587
1631709084.240644,219690.000,37067,4,PR,1,100,122568
1631709084.279053,219728.333,37085,3,PR,1,100,122548
1631709084.317461,219766.667,37085,3,PR,1,100,122592
1631709084.355870,219805.000,37085,3,PR,1,100,122601
1631709084.396449,219845.500,37104,2,PR,1,100,122606
1631709084.437028,219886.000,37104,2,PR,1,100,122584
1631709084.475437,219924.333,37122,3,PR,1,100,122609
1631709084.513845,219962.667,37122,3,PR,1,100,122611
1631709084.552253,220001.000,37122,3,PR,1,100,122607
1631709084.592833,220041.500,37142,2,PR,1,100,122612
1631709084.633412,220082.000,37142,2,PR,1,100,122608
1631709084.671152,220119.667,37160,3,PR,1,100,122651
1631709084.708893,220157.333,37160,3,PR,1,100,122661
1631709084.746633,220195.000,37160,3,PR,1,100,122664
1631709084.785376,220233.667,37177,3,PR,1,100,122649
1631709084.824118,220272.333,37177,3,PR,1,100,122662
1631709084.862860,220311.000,37177,3,PR,1,100,122689
1631709084.903941,220352.000,37195,2,PR,1,100,122678
1631709084.945021,220393.000,37195,2,PR,1,100,122677
1631709084.983095,220431.000,37214,3,PR,1,100,122664
1631709085.021170,220469.000,37214,3,PR,1,100,122671
1631709085.059244,220507.000,37214,3,PR,1,100,122650
1631709085.099323,220547.000,37232,2,PR,1,100,122667
1631709085.139401,220587.000,37232,2,PR,1,100,122663
1631709085.177141,220624.667,37249,3,PR,1,100,122605
1631709085.214882,220662.333,37249,3,PR,1,100,122603
1631709085.252622,220700.000,37249,3,PR,1,100,122590
1631709085.291698,220739.000,37267,3,PR,1,100,122666
1631709085.330775,220778.000,37267,3,PR,1,100,122665
1631709085.369851,220817.000,37267,3,PR,1,100,122574
1631709085.409930,220857.000,37286,2,PR,1,100,122523
1631709085.450008,220897.000,37286,2,PR,1,100,122580
1631709085.488416,220935.333,37304,3,PR,1,100,122641
1631709085.526825,220973.667,37304,3,PR,1,100,122635
1631709085.565233,221012.000,37304,3,PR,1,100,122587
1631709085.606313,221053.000,37324,2,PR,1,100,122537
1631709085.647394,221094.000,37324,2,PR,1,100,122497
1631709085.685468,221132.000,37340,3,PR,1,100,122534
1631709085.723542,221170.000,37340,3,PR,1,100,122570
1631709085.761617,221208.000,37340,3,PR,1,100,122568
1631709085.802196,221248.500,37359,2,PR,1,100,122584
1631709085.842775,221289.000,37359,2,PR,1,100,122539
1631709085.881518,221327.667,37377,3,PR,1,100,122516
1631709085.920260,221366.333,37377,3,PR,1,100,122518
1631709085.959002,221405.000,37377,3,PR,1,100,122533
1631709085.999081,221445.000,37396,2,PR,1,100,122575
1631709086.039159,221485.000,37396,2,PR,1,100,122514
1631709086.077234,221523.000,37412,3,PR,1,100,122402
1631709086.115308,221561.000,37412,3,PR,1,100,122267
1631709086.153383,221599.000,37412,3,PR,1,100,122272
1631709086.197134,221642.667,37431,3,PR,1,100,122313
1631709086.240887,221686.333,37431,3,PR,1,100,122341
1631709086.284639,221730.000,37431,3,PR,1,100,122356
1631709086.317203,221762.500,37449,2,PR,1,100,122329
1631709086.349766,221795.000,37449,2,PR,1,100,122298
1631709086.393518,221838.667,37468,3,PR,1,100,122255
1631709086.437271,221882.333,37468,3,PR,1,100,122137
1631709086.481023,221926.000,37468,3,PR,1,100,122014
1631709086.514087,221959.000,37486,2,PR,1,100,121936
1631709086.547152,221992.000,37486,2,PR,1,100,121918
1631709086.590904,222035.667,37504,3,PR,1,100,121926
1631709086.634656,222079.333,37504,3,PR,1,100,121949
1631709086.678408,222123.000,37504,3,PR,1,100,121971
1631709086.715815,222160.333,37522,3,PR,1,100,121954
1631709086.753221,222197.667,37522,3,PR,1,100,121917
1631709086.790628,222235.000,37522,3,PR,1,100,121913
1631709086.832209,222276.500,37541,2,PR,1,100,121894
1631709086.873790,222318.000,37541,2,PR,1,100,121854
1631709086.912199,222356.333,37559,3,PR,1,100,121784
1631709086.950607,222394.667,37559,3,PR,1,100,121709
1631709086.989015,222433.000,37559,3,PR,1,100,121728
1631709087.029094,222473.000,37576,2,PR,1,100,121764
1631709087.069172,222513.000,37576,2,PR,1,100,121790
1631709087.107580,222551.333,37594,3,PR,1,100,121805
1631709087.145989,222589.667,37594,3,PR,1,100,121814
1631709087.184397,222628.000,37594,3,PR,1,100,121837
1631709087.222138,222665.667,37613,3,PR,1,100,121882
1631709087.259878,222703.333,37613,3,PR,1,100,121871
1631709087.297619,222741.000,37613,3,PR,1,100,121856
1631709087.338699,222782.000,37631,2,PR,1,100,121842
1631709087.379779,222823.000,37631,2,PR,1,100,121868
1631709087.418187,222861.333,37648,3,PR,1,100,121894
1631709087.456596,222899.667,37648,3,PR,1,100,121915
1631709087.495004,222938.000,37648,3,PR,1,100,121891
1631709087.536586,222979.500,37667,2,PR,1,100,121876
1631709087.578167,223021.000,37667,2,PR,1,100,121881
1631709087.616241,223059.000,37686,3,PR,1,100,121878
1631709087.654315,223097.000,37686,3,PR,1,100,121846
1631709087.692390,223135.000,37686,3,PR,1,100,121811
1631709087.730130,223172.667,37704,3,PR,1,100,121813
1631709087.767871,223210.333,37704,3,PR,1,100,121831
1631709087.805611,223248.000,37704,3,PR,1,100,121787
1631709087.845690,223288.000,37723,2,PR,1,100,121771
1631709087.885768,223328.000,37723,2,PR,1,100,121727
1631709087.924176,223366.333,37739,3,PR,1,100,121733
1631709087.962585,223404.667,37739,3,PR,1,100,121741
1631709088.000993,223443.000,37739,3,PR,1,100,121707
1631709088.041572,223483.500,37758,2,PR,1,100,121711
1631709088.082152,223524.000,37758,2,PR,1,100,121698
1631709088.120560,223562.333,37776,3,PR,1,100,121736
1631709088.158968,223600.667,37776,3,PR,1,100,121763
1631709088.197377,223639.000,37776,3,PR,1,100,121828
1631709088.236119,223677.667,37795,3,PR,1,100,121787
1631709088.274862,223716.333,37795,3,PR,1,100,121724
1631709088.313604,223755.000,37795,3,PR,1,100,121709
1631709088.354183,223795.500,37811,2,PR,1,100,121688
1631709088.394763,223836.000,37811,2,PR,1,100,121667
1631709088.433171,223874.333,37830,3,PR,1,100,121525
1631709088.471579,223912.667,37830,3,PR,1,100,121396
1631709088.509988,223951.000,37830,3,PR,1,100,121341
1631709088.551068,223992.000,37849,2,PR,1,100,121299
1631709088.592148,224033.000,37849,2,PR,1,100,121274
1631709088.630223,224071.000,37868,3,PR,1,100,121268
1631709088.668297,224109.000,37868,3,PR,1,100,121255
1631709088.706372,224147.000,37868,3,PR,1,100,121236
1631709088.747452,224188.000,37886,2,PR,1,100,121176
1631709088.788532,224229.000,37886,2,PR,1,100,121082
1631709088.826272,224266.667,37903,3,PR,1,100,121137
1631709088.864013,224304.333,37903,3,PR,1,100,121376
1631709088.901753,224342.000,37903,3,PR,1,100,121473
1631709088.942333,224382.500,37921,2,PR,1,100,121473
1631709088.982912,224423.000,37921,2,PR,1,100,121477
1631709089.021320,224461.333,37940,3,PR,1,100,121519
1631709089.059729,224499.667,37940,3,PR,1,100,121608
1631709089.098137,224538.000,37940,3,PR,1,100,121501
1631709089.139217,224579.000,37958,2,PR,1,100,121150
1631709089.180298,224620.000,37958,2,PR,1,100,120705
1631709089.219574,224659.200,37978,5,PR,1,100,120420
1631709089.258851,224698.400,37978,5,PR,1,100,120250
1631709089.298128,224737.600,37978,5,PR,1,100,120285
1631709089.337405,224776.800,37978,5,PR,1,100,120425
1631709089.376682,224816.000,37978,5,PR,1,100,120480
1631709089.417261,224856.500,37996,2,PR,1,100,120527
1631709089.457840,224897.000,37996,2,PR,1,100,120472
1631709089.495914,224935.000,38014,3,PR,1,100,120429
1631709089.533989,224973.000,38014,3,PR,1,100,120423
1631709089.572063,225011.000,38014,3,PR,1,100,120454
1631709089.613144,225052.000,38032,2,PR,1,100,120213
1631709089.654224,225093.000,38032,2,PR,1,100,120146
1631709089.692298,225131.000,38051,3,PR,1,100,120280
1631709089.730373,225169.000,38051,3,PR,1,100,120607
1631709089.768447,225207.000,38051,3,PR,1,100,120787
1631709089.806855,225245.333,38069,3,PR,1,100,120761
1631709089.845264,225283.667,38069,3,PR,1,100,120569
1631709089.883672,225322.000,38069,3,PR,1,100,120329
1631709089.924252,225362.500,38086,2,PR,1,100,120200
1631709089.964831,225403.000,38086,2,PR,1,100,120031
1631709090.003239,225441.333,38103,3,PR,1,100,120082
1631709090.041648,225479.667,38103,3,PR,1,100,120244
1631709090.080056,225518.000,38103,3,PR,1,100,120286
1631709090.120134,225558.000,38121,2,PR,1,100,120249
1631709090.160213,225598.000,38121,2,PR,1,100,120308
1631709090.198955,225636.667,38139,3,PR,1,100,120331
1631709090.237697,225675.333,38139,3,PR,1,100,120267
1631709090.276440,225714.000,38139,3,PR,1,100,120225
1631709090.317019,225754.500,38158,2,PR,1,100,120244
1631709090.357599,225795.000,38158,2,PR,1,100,120360
1631709090.401017,225838.333,38174,3,PR,1,100,120526
1631709090.444435,225881.667,38174,3,PR,1,100,120610
1631709090.487853,225925.000,38174,3,PR,1,100,120534
1631709090.526261,225963.333,38194,3,PR,1,100,120450
1631709090.564670,226001.667,38194,3,PR,1,100,120493
1631709090.603078,226040.000,38194,3,PR,1,100,120528
1631709090.643657,226080.500,38212,2,PR,1,100,120483
1631709090.684237,226121.000,38212,2,PR,1,100,120485
1631709090.722311,226159.000,38231,3,PR,1,100,120469
1631709090.760386,226197.000,38231,3,PR,1,100,120497
1631709090.798460,226235.000,38231,3,PR,1,100,120528
1631709090.839540,226276.000,38249,2,PR,1,100,120624
1631709090.880620,226317.000,38249,2,PR,1,100,120796
1631709090.919029,226355.333,38266,3,PR,1,100,120993
1631709090.957437,226393.667,38266,3,PR,1,100,121128
1631709090.995846,226432.000,38266,3,PR,1,100,121103
1631709091.033920,226470.000,38284,3,PR,1,100,121156
1631709091.071995,226508.000,38284,3,PR,1,100,121195
1631709091.110069,226546.000,38284,3,PR,1,100,121150
1631709091.151650,226587.500,38303,2,PR,1,100,120983
1631709091.193231,226629.000,38303,2,PR,1,100,121017
1631709091.230972,226666.667,38321,3,PR,1,100,121257
1631709091.268712,226704.333,38321,3,PR,1,100,121428
1631709091.306453,226742.000,38321,3,PR,1,100,121445
1631709091.347032,226782.500,38338,2,PR,1,100,121376
1631709091.387611,226823.000,38338,2,PR,1,100,121362
1631709091.426354,226861.667,38356,3,PR,1,100,121396
1631709091.465096,226900.333,38356,3,PR,1,100,121362
1631709091.503839,226939.000,38356,3,PR,1,100,121257
1631709091.541579,226976.667,38376,3,PR,1,100,121159
1631709091.579319,227014.333,38376,3,PR,1,100,120991
1631709091.617060,227052.000,38376,3,PR,1,100,120846
1631709091.658140,227093.000,38394,2,PR,1,100,120874
1631709091.699220,227134.000,38394,2,PR,1,100,121039
1631709091.737295,227172.000,38411,3,PR,1,100,121137
1631709091.775369,227210.000,38411,3,PR,1,100,121166
1631709091.813443,227248.000,38411,3,PR,1,100,121206
1631709091.855025,227289.500,38429,2,PR,1,100,121291
1631709091.896606,227331.000,38429,2,PR,1,100,121315
1631709091.935014,227369.333,38448,3,PR,1,100,121307
1631709091.973423,227407.667,38448,3,PR,1,100,121346
1631709092.011831,227446.000,38448,3,PR,1,100,121303
1631709092.049572,227483.667,38466,3,PR,1,100,121224
1631709092.087312,227521.333,38466,3,PR,1,100,121107
1631709092.125052,227559.000,38466,3,PR,1,100,121060
1631709092.166133,227600.000,38485,2,PR,1,100,121071
1631709092.207213,227641.000,38485,2,PR,1,100,121022
1631709092.245287,227679.000,38501,3,PR,1,100,120996
1631709092.283362,227717.000,38501,3,PR,1,100,121013
1631709092.321436,227755.000,38501,3,PR,1,100,121008
1631709092.362015,227795.500,38520,2,PR,1,100,121058
1631709092.402595,227836.000,38520,2,PR,1,100,121085
1631709092.441003,227874.333,38539,3,PR,1,100,121135
1631709092.479412,227912.667,38539,3,PR,1,100,121133
1631709092.517820,227951.000,38539,3,PR,1,100,121127
1631709092.558900,227992.000,38558,2,PR,1,100,121139
1631709092.599981,228033.000,38558,2,PR,1,100,121123
1631709092.638055,228071.000,38574,3,PR,1,100,121106
1631709092.676129,228109.000,38574,3,PR,1,100,121107
1631709092.714204,228147.000,38574,3,PR,1,100,121142
