EpochTimestamp,EmotiBitTimestamp,PacketNumber,DataLength,TypeTag,ProtocolVersion,DataReliability,PI
1631709007.819300,143418.000,23469,1,PI,1,100,158729
1631709007.943542,143542.000,23483,2,PI,1,100,158782
1631709008.067785,143666.000,23483,2,PI,1,100,158787
1631709008.100349,143698.500,23502,2,PI,1,100,158805
1631709008.132912,143731.000,23502,2,PI,1,100,158847
1631709008.176665,143774.667,23521,3,PI,1,100,158854
1631709008.220417,143818.333,23521,3,PI,1,100,158869
1631709008.264169,143862.000,23521,3,PI,1,100,158872
1631709008.301575,143899.333,23539,3,PI,1,100,158870
1631709008.338982,143936.667,23539,3,PI,1,100,158882
1631709008.376388,143974.000,23539,3,PI,1,100,158908
1631709008.417469,144015.000,23556,2,PI,1,100,158863
1631709008.458549,144056.000,23556,2,PI,1,100,158798
1631709008.496623,144094.000,23574,3,PI,1,100,158795
1631709008.534698,144132.000,23574,3,PI,1,100,158770
1631709008.572772,144170.000,23574,3,PI,1,100,158740
1631709008.613852,144211.000,23593,2,PI,1,100,158720
1631709008.654933,144252.000,23593,2,PI,1,100,158701
1631709008.692673,144289.667,23611,3,PI,1,100,158718
1631709008.730413,144327.333,23611,3,PI,1,100,158721
1631709008.768154,144365.000,23611,3,PI,1,100,158744
1631709008.806562,144403.333,23628,3,PI,1,100,158748
1631709008.844971,144441.667,23628,3,PI,1,100,158769
1631709008.883379,144480.000,23628,3,PI,1,100,158822
1631709008.924459,144521.000,23646,2,PI,1,100,158842
1631709008.965540,144562.000,23646,2,PI,1,100,158848
1631709009.004282,144600.667,23665,3,PI,1,100,158839
1631709009.043024,144639.333,23665,3,PI,1,100,158829
1631709009.081767,144678.000,23665,3,PI,1,100,158870
1631709009.119507,144715.667,23684,3,PI,1,100,158789
1631709009.157248,144753.333,23684,3,PI,1,100,158712
1631709009.194988,144791.000,23684,3,PI,1,100,158633
1631709009.236068,144832.000,23703,2,PI,1,100,158617
1631709009.277148,144873.000,23703,2,PI,1,100,158667
1631709009.314555,144910.333,23719,3,PI,1,100,158692
1631709009.351961,144947.667,23719,3,PI,1,100,158686
1631709009.389368,144985.000,23719,3,PI,1,100,158661
1631709009.430448,145026.000,23738,2,PI,1,100,158643
1631709009.471529,145067.000,23738,2,PI,1,100,158648
1631709009.509269,145104.667,23756,3,PI,1,100,158661
1631709009.547009,145142.333,23756,3,PI,1,100,158667
1631709009.584750,145180.000,23756,3,PI,1,100,158657
1631709009.623826,145219.000,23775,3,PI,1,100,158700
1631709009.662902,145258.000,23775,3,PI,1,100,158704
1631709009.701979,145297.000,23775,3,PI,1,100,158706
1631709009.742558,145337.500,23791,2,PI,1,100,158685
1631709009.783137,145378.000,23791,2,PI,1,100,158644
1631709009.821880,145416.667,23810,3,PI,1,100,158638
1631709009.860622,145455.333,23810,3,PI,1,100,158597
1631709009.899364,145494.000,23810,3,PI,1,100,158599
1631709009.939443,145534.000,23828,2,PI,1,100,158602
1631709009.979521,145574.000,23828,2,PI,1,100,158598
1631709010.017930,145612.333,23848,3,PI,1,100,158595
1631709010.056338,145650.667,23848,3,PI,1,100,158579
1631709010.094746,145689.000,23848,3,PI,1,100,158596
1631709010.135326,145729.500,23866,2,PI,1,100,158605
1631709010.175905,145770.000,23866,2,PI,1,100,158606
1631709010.214647,145808.667,23883,3,PI,1,100,158606
1631709010.253390,145847.333,23883,3,PI,1,100,158616
1631709010.292132,145886.000,23883,3,PI,1,100,158617
1631709010.332211,145926.000,23901,2,PI,1,100,158633
1631709010.372289,145966.000,23901,2,PI,1,100,158649
1631709010.410697,146004.333,23920,3,PI,1,100,158594
1631709010.449106,146042.667,23920,3,PI,1,100,158564
1631709010.487514,146081.000,23920,3,PI,1,100,158541
1631709010.530932,146124.333,23938,3,PI,1,100,158542
1631709010.574350,146167.667,23938,3,PI,1,100,158525
1631709010.617769,146211.000,23938,3,PI,1,100,158530
1631709010.650332,146243.500,23955,2,PI,1,100,158554
1631709010.682896,146276.000,23955,2,PI,1,100,158559
1631709010.726648,146319.667,23973,3,PI,1,100,158554
1631709010.770400,146363.333,23973,3,PI,1,100,158540
1631709010.814152,146407.000,23973,3,PI,1,100,158558
1631709010.847217,146440.000,23992,2,PI,1,100,158597
1631709010.880281,146473.000,23992,2,PI,1,100,158598
1631709010.923700,146516.333,24010,3,PI,1,100,158597
1631709010.967118,146559.667,24010,3,PI,1,100,158597
1631709011.010536,146603.000,24010,3,PI,1,100,158610
1631709011.043601,146636.000,24030,2,PI,1,100,158612
1631709011.076665,146669.000,24030,2,PI,1,100,158584
1631709011.120083,146712.333,24046,3,PI,1,100,158545
1631709011.163502,146755.667,24046,3,PI,1,100,158499
1631709011.206920,146799.000,24046,3,PI,1,100,158510
1631709011.244994,146837.000,24065,3,PI,1,100,158499
1631709011.283069,146875.000,24065,3,PI,1,100,158517
1631709011.321143,146913.000,24065,3,PI,1,100,158527
1631709011.362223,146954.000,24083,2,PI,1,100,158528
1631709011.403304,146995.000,24083,2,PI,1,100,158547
1631709011.441378,147033.000,24102,3,PI,1,100,158538
1631709011.479452,147071.000,24102,3,PI,1,100,158567
1631709011.517527,147109.000,24102,3,PI,1,100,158567
1631709011.558607,147150.000,24118,2,PI,1,100,158576
1631709011.599687,147191.000,24118,2,PI,1,100,158628
1631709011.638096,147229.333,24137,3,PI,1,100,158641
1631709011.676504,147267.667,24137,3,PI,1,100,158648
1631709011.714913,147306.000,24137,3,PI,1,100,158654
1631709011.752987,147344.000,24155,3,PI,1,100,158650
1631709011.791061,147382.000,24155,3,PI,1,100,158636
1631709011.829136,147420.000,24155,3,PI,1,100,158608
1631709011.870216,147461.000,24174,2,PI,1,100,158589
1631709011.911296,147502.000,24174,2,PI,1,100,158552
1631709011.949037,147539.667,24190,3,PI,1,100,158570
1631709011.986777,147577.333,24190,3,PI,1,100,158577
1631709012.024518,147615.000,24190,3,PI,1,100,158590
1631709012.065598,147656.000,24210,2,PI,1,100,158589
1631709012.106678,147697.000,24210,2,PI,1,100,158593
1631709012.144753,147735.000,24228,3,PI,1,100,158601
1631709012.182827,147773.000,24228,3,PI,1,100,158626
1631709012.220901,147811.000,24228,3,PI,1,100,158637
1631709012.259310,147849.333,24247,3,PI,1,100,158657
1631709012.297718,147887.667,24247,3,PI,1,100,158666
1631709012.336127,147926.000,24247,3,PI,1,100,158686
1631709012.379879,147969.667,24268,3,PI,1,100,158699
1631709012.423631,148013.333,24268,3,PI,1,100,158728
1631709012.467383,148057.000,24268,3,PI,1,100,158723
1631709012.499947,148089.500,24287,2,PI,1,100,158668
1631709012.532510,148122.000,24287,2,PI,1,100,158659
1631709012.576262,148165.667,24303,3,PI,1,100,158629
1631709012.620015,148209.333,24303,3,PI,1,100,158640
1631709012.663767,148253.000,24303,3,PI,1,100,158633
1631709012.696331,148285.500,24322,2,PI,1,100,158631
1631709012.728894,148318.000,24322,2,PI,1,100,158656
1631709012.771978,148361.000,24340,3,PI,1,100,158656
1631709012.815063,148404.000,24340,3,PI,1,100,158674
1631709012.858147,148447.000,24340,3,PI,1,100,158684
1631709012.897223,148486.000,24359,3,PI,1,100,158691
1631709012.936299,148525.000,24359,3,PI,1,100,158678
1631709012.975376,148564.000,24359,3,PI,1,100,158716
1631709013.015955,148604.500,24376,2,PI,1,100,158734
1631709013.056534,148645.000,24376,2,PI,1,100,158746
1631709013.094943,148683.333,24395,3,PI,1,100,158752
1631709013.133351,148721.667,24395,3,PI,1,100,158745
1631709013.171760,148760.000,24395,3,PI,1,100,158709
1631709013.212339,148800.500,24413,2,PI,1,100,158696
1631709013.252918,148841.000,24413,2,PI,1,100,158689
1631709013.290992,148879.000,24432,3,PI,1,100,158663
1631709013.329067,148917.000,24432,3,PI,1,100,158682
1631709013.367141,148955.000,24432,3,PI,1,100,158696
1631709013.405884,148993.667,24450,3,PI,1,100,158702
1631709013.444626,149032.333,24450,3,PI,1,100,158710
1631709013.483368,149071.000,24450,3,PI,1,100,158699
1631709013.524449,149112.000,24467,2,PI,1,100,158711
1631709013.565529,149153.000,24467,2,PI,1,100,158750
1631709013.602936,149190.333,24485,3,PI,1,100,158756
1631709013.640342,149227.667,24485,3,PI,1,100,158777
1631709013.677748,149265.000,24485,3,PI,1,100,158772
1631709013.719330,149306.500,24504,2,PI,1,100,158779
1631709013.760911,149348.000,24504,2,PI,1,100,158820
1631709013.798651,149385.667,24522,3,PI,1,100,158797
1631709013.836392,149423.333,24522,3,PI,1,100,158744
1631709013.874132,149461.000,24522,3,PI,1,100,158718
1631709013.912540,149499.333,24539,3,PI,1,100,158711
1631709013.950949,149537.667,24539,3,PI,1,100,158719
1631709013.989357,149576.000,24539,3,PI,1,100,158704
1631709014.030438,149617.000,24558,2,PI,1,100,158730
1631709014.071518,149658.000,24558,2,PI,1,100,158730
1631709014.109258,149695.667,24577,3,PI,1,100,158727
1631709014.146999,149733.333,24577,3,PI,1,100,158753
1631709014.184739,149771.000,24577,3,PI,1,100,158724
1631709014.225819,149812.000,24595,2,PI,1,100,158760
1631709014.266900,149853.000,24595,2,PI,1,100,158783
1631709014.304974,149891.000,24614,3,PI,1,100,158797
1631709014.343049,149929.000,24614,3,PI,1,100,158824
1631709014.381123,149967.000,24614,3,PI,1,100,158831
1631709014.418863,150004.667,24630,3,PI,1,100,158822
1631709014.456604,150042.333,24630,3,PI,1,100,158781
1631709014.494344,150080.000,24630,3,PI,1,100,158736
1631709014.535925,150121.500,24649,2,PI,1,100,158733
1631709014.577507,150163.000,24649,2,PI,1,100,158726
1631709014.615247,150200.667,24667,3,PI,1,100,158710
1631709014.652987,150238.333,24667,3,PI,1,100,158745
1631709014.690728,150276.000,24667,3,PI,1,100,158731
1631709014.731307,150316.500,24686,2,PI,1,100,158749
1631709014.771887,150357.000,24686,2,PI,1,100,158748
1631709014.809961,150395.000,24702,3,PI,1,100,158737
1631709014.848035,150433.000,24702,3,PI,1,100,158787
1631709014.886110,150471.000,24702,3,PI,1,100,158791
1631709014.926689,150511.500,24721,2,PI,1,100,158830
1631709014.967268,150552.000,24721,2,PI,1,100,158830
1631709015.005677,150590.333,24740,3,PI,1,100,158814
1631709015.044085,150628.667,24740,3,PI,1,100,158783
1631709015.082494,150667.000,24740,3,PI,1,100,158727
1631709015.124075,150708.500,24759,2,PI,1,100,158717
1631709015.165656,150750.000,24759,2,PI,1,100,158696
1631709015.203397,150787.667,24777,3,PI,1,100,158650
1631709015.241137,150825.333,24777,3,PI,1,100,158670
1631709015.278877,150863.000,24777,3,PI,1,100,158660
1631709015.322295,150906.333,24794,3,PI,1,100,158638
1631709015.365714,150949.667,24794,3,PI,1,100,158601
1631709015.409132,150993.000,24794,3,PI,1,100,158565
1631709015.441695,151025.500,24812,2,PI,1,100,158633
1631709015.474259,151058.000,24812,2,PI,1,100,158673
1631709015.518345,151102.000,24831,3,PI,1,100,158651
1631709015.562432,151146.000,24831,3,PI,1,100,158638
1631709015.606518,151190.000,24831,3,PI,1,100,158665
1631709015.639081,151222.500,24849,2,PI,1,100,158608
1631709015.671645,151255.000,24849,2,PI,1,100,158528
1631709015.715063,151298.333,24866,3,PI,1,100,158523
1631709015.758481,151341.667,24866,3,PI,1,100,158538
1631709015.801899,151385.000,24866,3,PI,1,100,158549
1631709015.840308,151423.333,24884,3,PI,1,100,158547
1631709015.878716,151461.667,24884,3,PI,1,100,158542
1631709015.917125,151500.000,24884,3,PI,1,100,158515
1631709015.956702,151539.500,24904,2,PI,1,100,158502
1631709015.996279,151579.000,24904,2,PI,1,100,158482
1631709016.034688,151617.333,24922,3,PI,1,100,158471
1631709016.073096,151655.667,24922,3,PI,1,100,158461
1631709016.111505,151694.000,24922,3,PI,1,100,158478
1631709016.152585,151735.000,24941,2,PI,1,100,158490
1631709016.193665,151776.000,24941,2,PI,1,100,158432
1631709016.231740,151814.000,24957,3,PI,1,100,158375
1631709016.269814,151852.000,24957,3,PI,1,100,158358
1631709016.307888,151890.000,24957,3,PI,1,100,158341
1631709016.346297,151928.333,24976,3,PI,1,100,158317
1631709016.384705,151966.667,24976,3,PI,1,100,158296
1631709016.423113,152005.000,24976,3,PI,1,100,158310
1631709016.463693,152045.500,24994,2,PI,1,100,158334
1631709016.504272,152086.000,24994,2,PI,1,100,158351
1631709016.542346,152124.000,25013,3,PI,1,100,158366
1631709016.580421,152162.000,25013,3,PI,1,100,158318
1631709016.618495,152200.000,25013,3,PI,1,100,158311
1631709016.660077,152241.500,25029,2,PI,1,100,158272
1631709016.701658,152283.000,25029,2,PI,1,100,158214
1631709016.739398,152320.667,25048,3,PI,1,100,158251
1631709016.777139,152358.333,25048,3,PI,1,100,158313
1631709016.814879,152396.000,25048,3,PI,1,100,158409
1631709016.853287,152434.333,25066,3,PI,1,100,158437
1631709016.891696,152472.667,25066,3,PI,1,100,158468
1631709016.930104,152511.000,25066,3,PI,1,100,158513
1631709016.971184,152552.000,25086,2,PI,1,100,158579
1631709017.012265,152593.000,25086,2,PI,1,100,158649
1631709017.049671,152630.333,25102,3,PI,1,100,158722
1631709017.087078,152667.667,25102,3,PI,1,100,158797
1631709017.124484,152705.000,25102,3,PI,1,100,158850
1631709017.166065,152746.500,25121,2,PI,1,100,158881
1631709017.207647,152788.000,25121,2,PI,1,100,158908
1631709017.245721,152826.000,25139,3,PI,1,100,158911
1631709017.283795,152864.000,25139,3,PI,1,100,158872
1631709017.321870,152902.000,25139,3,PI,1,100,158831
1631709017.362449,152942.500,25158,2,PI,1,100,158850
1631709017.403028,152983.000,25158,2,PI,1,100,158843
1631709017.442105,153022.000,25182,5,PI,1,100,158897
1631709017.481181,153061.000,25182,5,PI,1,100,158952
1631709017.520257,153100.000,25182,5,PI,1,100,158996
1631709017.559334,153139.000,25182,5,PI,1,100,159018
1631709017.598410,153178.000,25182,5,PI,1,100,158947
1631709017.636485,153216.000,25200,3,PI,1,100,158912
1631709017.674559,153254.000,25200,3,PI,1,100,158839
1631709017.712633,153292.000,25200,3,PI,1,100,158756
1631709017.754215,153333.500,25219,2,PI,1,100,158679
1631709017.795796,153375.000,25219,2,PI,1,100,158606
1631709017.833870,153413.000,25237,3,PI,1,100,158590
1631709017.871945,153451.000,25237,3,PI,1,100,158564
1631709017.910019,153489.000,25237,3,PI,1,100,158562
1631709017.951099,153530.000,25255,2,PI,1,100,158562
1631709017.992180,153571.000,25255,2,PI,1,100,158562
1631709018.029920,153608.667,25273,3,PI,1,100,158586
1631709018.067661,153646.333,25273,3,PI,1,100,158612
1631709018.105401,153684.000,25273,3,PI,1,100,158591
1631709018.145980,153724.500,25292,2,PI,1,100,158633
1631709018.186560,153765.000,25292,2,PI,1,100,158647
1631709018.224968,153803.333,25310,3,PI,1,100,158612
1631709018.263376,153841.667,25310,3,PI,1,100,158543
1631709018.301785,153880.000,25310,3,PI,1,100,158496
1631709018.342865,153921.000,25327,2,PI,1,100,158504
1631709018.383945,153962.000,25327,2,PI,1,100,158487
1631709018.422020,154000.000,25345,3,PI,1,100,158510
1631709018.460094,154038.000,25345,3,PI,1,100,158516
1631709018.498168,154076.000,25345,3,PI,1,100,158503
1631709018.541587,154119.333,25364,3,PI,1,100,158541
1631709018.585005,154162.667,25364,3,PI,1,100,158588
1631709018.628423,154206.000,25364,3,PI,1,100,158614
1631709018.660987,154238.500,25382,2,PI,1,100,158624
1631709018.693550,154271.000,25382,2,PI,1,100,158661
1631709018.737303,154314.667,25401,3,PI,1,100,158687
1631709018.781055,154358.333,25401,3,PI,1,100,158687
1631709018.824807,154402.000,25401,3,PI,1,100,158587
1631709018.862881,154440.000,25418,3,PI,1,100,158538
1631709018.900956,154478.000,25418,3,PI,1,100,158495
1631709018.939030,154516.000,25418,3,PI,1,100,158514
1631709018.980611,154557.500,25437,2,PI,1,100,158583
1631709019.022193,154599.000,25437,2,PI,1,100,158606
1631709019.059933,154636.667,25455,3,PI,1,100,158623
1631709019.097673,154674.333,25455,3,PI,1,100,158620
1631709019.135414,154712.000,25455,3,PI,1,100,158640
1631709019.175492,154752.000,25474,2,PI,1,100,158708
1631709019.215570,154792.000,25474,2,PI,1,100,158726
1631709019.253979,154830.333,25490,3,PI,1,100,158741
1631709019.292387,154868.667,25490,3,PI,1,100,158746
1631709019.330796,154907.000,25490,3,PI,1,100,158811
1631709019.369204,154945.333,25509,3,PI,1,100,158852
1631709019.407613,154983.667,25509,3,PI,1,100,158834
1631709019.446021,155022.000,25509,3,PI,1,100,158780
1631709019.487101,155063.000,25527,2,PI,1,100,158710
1631709019.528182,155104.000,25527,2,PI,1,100,158705
1631709019.566924,155142.667,25546,3,PI,1,100,158668
1631709019.605666,155181.333,25546,3,PI,1,100,158653
1631709019.644409,155220.000,25546,3,PI,1,100,158629
1631709019.684487,155260.000,25562,2,PI,1,100,158610
1631709019.724565,155300.000,25562,2,PI,1,100,158656
1631709019.762974,155338.333,25581,3,PI,1,100,158658
1631709019.801382,155376.667,25581,3,PI,1,100,158661
1631709019.839790,155415.000,25581,3,PI,1,100,158644
1631709019.880871,155456.000,25600,2,PI,1,100,158664
1631709019.921951,155497.000,25600,2,PI,1,100,158688
1631709019.959691,155534.667,25619,3,PI,1,100,158691
1631709019.997432,155572.333,25619,3,PI,1,100,158690
1631709020.035172,155610.000,25619,3,PI,1,100,158662
1631709020.073581,155648.333,25637,3,PI,1,100,158633
1631709020.111989,155686.667,25637,3,PI,1,100,158575
1631709020.150398,155725.000,25637,3,PI,1,100,158530
1631709020.190476,155765.000,25654,2,PI,1,100,158483
1631709020.230554,155805.000,25654,2,PI,1,100,158455
1631709020.268628,155843.000,25672,3,PI,1,100,158451
1631709020.306703,155881.000,25672,3,PI,1,100,158482
1631709020.344777,155919.000,25672,3,PI,1,100,158515
1631709020.386358,155960.500,25691,2,PI,1,100,158540
1631709020.427940,156002.000,25691,2,PI,1,100,158536
1631709020.466348,156040.333,25709,3,PI,1,100,158563
1631709020.504757,156078.667,25709,3,PI,1,100,158572
1631709020.543165,156117.000,25709,3,PI,1,100,158575
1631709020.581239,156155.000,25726,3,PI,1,100,158582
1631709020.619314,156193.000,25726,3,PI,1,100,158603
1631709020.657388,156231.000,25726,3,PI,1,100,158617
1631709020.698468,156272.000,25744,2,PI,1,100,158650
1631709020.739549,156313.000,25744,2,PI,1,100,158639
1631709020.776955,156350.333,25763,3,PI,1,100,158562
1631709020.814362,156387.667,25763,3,PI,1,100,158527
1631709020.851768,156425.000,25763,3,PI,1,100,158479
1631709020.893349,156466.500,25782,2,PI,1,100,158480
1631709020.934931,156508.000,25782,2,PI,1,100,158460
1631709020.972671,156545.667,25801,3,PI,1,100,158416
1631709021.010412,156583.333,25801,3,PI,1,100,158445
1631709021.048152,156621.000,25801,3,PI,1,100,158396
1631709021.089232,156662.000,25817,2,PI,1,100,158386
1631709021.130312,156703.000,25817,2,PI,1,100,158364
1631709021.168387,156741.000,25836,3,PI,1,100,158323
1631709021.206461,156779.000,25836,3,PI,1,100,158317
1631709021.244536,156817.000,25836,3,PI,1,100,158291
1631709021.285616,156858.000,25854,2,PI,1,100,158366
1631709021.326696,156899.000,25854,2,PI,1,100,158423
1631709021.364437,156936.667,25873,3,PI,1,100,158443
1631709021.402177,156974.333,25873,3,PI,1,100,158457
1631709021.439917,157012.000,25873,3,PI,1,100,158375
1631709021.481499,157053.500,25889,2,PI,1,100,158373
1631709021.523080,157095.000,25889,2,PI,1,100,158363
1631709021.561154,157133.000,25908,3,PI,1,100,158341
1631709021.599229,157171.000,25908,3,PI,1,100,158373
1631709021.637303,157209.000,25908,3,PI,1,100,158433
1631709021.681055,157252.667,25926,3,PI,1,100,158456
1631709021.724808,157296.333,25926,3,PI,1,100,158478
1631709021.768560,157340.000,25926,3,PI,1,100,158500
1631709021.800622,157372.000,25946,2,PI,1,100,158505
1631709021.832685,157404.000,25946,2,PI,1,100,158516
1631709021.876437,157447.667,25964,3,PI,1,100,158528
1631709021.920189,157491.333,25964,3,PI,1,100,158509
1631709021.963942,157535.000,25964,3,PI,1,100,158551
1631709022.001682,157572.667,25981,3,PI,1,100,158545
1631709022.039422,157610.333,25981,3,PI,1,100,158571
1631709022.077163,157648.000,25981,3,PI,1,100,158591
1631709022.119245,157690.000,25999,2,PI,1,100,158559
1631709022.161327,157732.000,25999,2,PI,1,100,158538
1631709022.199402,157770.000,26018,3,PI,1,100,158474
1631709022.237476,157808.000,26018,3,PI,1,100,158451
1631709022.275550,157846.000,26018,3,PI,1,100,158437
1631709022.316130,157886.500,26036,2,PI,1,100,158419
1631709022.356709,157927.000,26036,2,PI,1,100,158396
1631709022.394783,157965.000,26053,3,PI,1,100,158385
1631709022.432858,158003.000,26053,3,PI,1,100,158401
1631709022.470932,158041.000,26053,3,PI,1,100,158400
1631709022.512012,158082.000,26071,2,PI,1,100,158403
1631709022.553093,158123.000,26071,2,PI,1,100,158394
1631709022.589664,158159.500,26095,4,PI,1,100,158392
1631709022.626236,158196.000,26095,4,PI,1,100,158430
1631709022.662807,158232.500,26095,4,PI,1,100,158461
1631709022.699379,158269.000,26095,4,PI,1,100,158472
1631709022.737787,158307.333,26114,3,PI,1,100,158469
1631709022.776196,158345.667,26114,3,PI,1,100,158469
1631709022.814604,158384.000,26114,3,PI,1,100,158500
1631709022.858022,158427.333,26133,3,PI,1,100,158459
1631709022.901440,158470.667,26133,3,PI,1,100,158405
1631709022.944859,158514.000,26133,3,PI,1,100,158352
1631709022.977923,158547.000,26151,2,PI,1,100,158339
1631709023.010988,158580.000,26151,2,PI,1,100,158336
1631709023.054406,158623.333,26168,3,PI,1,100,158349
1631709023.097824,158666.667,26168,3,PI,1,100,158343
1631709023.141242,158710.000,26168,3,PI,1,100,158320
1631709023.174307,158743.000,26186,2,PI,1,100,158375
1631709023.207371,158776.000,26186,2,PI,1,100,158394
1631709023.251458,158820.000,26205,3,PI,1,100,158409
1631709023.295544,158864.000,26205,3,PI,1,100,158387
1631709023.339630,158908.000,26205,3,PI,1,100,158416
1631709023.372194,158940.500,26223,2,PI,1,100,158468
1631709023.404757,158973.000,26223,2,PI,1,100,158478
1631709023.447841,159016.000,26242,3,PI,1,100,158486
1631709023.490926,159059.000,26242,3,PI,1,100,158481
1631709023.534010,159102.000,26242,3,PI,1,100,158517
1631709023.572418,159140.333,26258,3,PI,1,100,158506
1631709023.610826,159178.667,26258,3,PI,1,100,158447
1631709023.649235,159217.000,26258,3,PI,1,100,158413
1631709023.689814,159257.500,26277,2,PI,1,100,158381
1631709023.730394,159298.000,26277,2,PI,1,100,158364
1631709023.768802,159336.333,26296,3,PI,1,100,158356
1631709023.807210,159374.667,26296,3,PI,1,100,158357
1631709023.845619,159413.000,26296,3,PI,1,100,158361
1631709023.886699,159454.000,26315,2,PI,1,100,158360
1631709023.927779,159495.000,26315,2,PI,1,100,158380
1631709023.965854,159533.000,26331,3,PI,1,100,158380
1631709024.003928,159571.000,26331,3,PI,1,100,158376
1631709024.042002,159609.000,26331,3,PI,1,100,158395
1631709024.080411,159647.333,26350,3,PI,1,100,158387
1631709024.118819,159685.667,26350,3,PI,1,100,158422
1631709024.157228,159724.000,26350,3,PI,1,100,158445
1631709024.197306,159764.000,26368,2,PI,1,100,158455
1631709024.237384,159804.000,26368,2,PI,1,100,158461
1631709024.275793,159842.333,26387,3,PI,1,100,158460
1631709024.314201,159880.667,26387,3,PI,1,100,158473
1631709024.352609,159919.000,26387,3,PI,1,100,158430
1631709024.393189,159959.500,26405,2,PI,1,100,158382
1631709024.433768,160000.000,26405,2,PI,1,100,158346
1631709024.471843,160038.000,26422,3,PI,1,100,158296
1631709024.509917,160076.000,26422,3,PI,1,100,158325
1631709024.547991,160114.000,26422,3,PI,1,100,158326
1631709024.586066,160152.000,26440,3,PI,1,100,158299
1631709024.624140,160190.000,26440,3,PI,1,100,158236
1631709024.662215,160228.000,26440,3,PI,1,100,158205
1631709024.703295,160269.000,26459,2,PI,1,100,158168
1631709024.744375,160310.000,26459,2,PI,1,100,158117
1631709024.782784,160348.333,26478,3,PI,1,100,158103
1631709024.821192,160386.667,26478,3,PI,1,100,158038
1631709024.859600,160425.000,26478,3,PI,1,100,158003
1631709024.900681,160466.000,26495,2,PI,1,100,157994
1631709024.941761,160507.000,26495,2,PI,1,100,157918
1631709024.979835,160545.000,26513,3,PI,1,100,157777
1631709025.017910,160583.000,26513,3,PI,1,100,157725
1631709025.055984,160621.000,26513,3,PI,1,100,157673
1631709025.097064,160662.000,26532,2,PI,1,100,157651
1631709025.138145,160703.000,26532,2,PI,1,100,157725
1631709025.175885,160740.667,26550,3,PI,1,100,157733
1631709025.213625,160778.333,26550,3,PI,1,100,157802
1631709025.251366,160816.000,26550,3,PI,1,100,157903
1631709025.291945,160856.500,26567,2,PI,1,100,157982
1631709025.332525,160897.000,26567,2,PI,1,100,158087
1631709025.370933,160935.333,26585,3,PI,1,100,158223
1631709025.409341,160973.667,26585,3,PI,1,100,158318
1631709025.447750,161012.000,26585,3,PI,1,100,158422
1631709025.488329,161052.500,26604,2,PI,1,100,158427
1631709025.528908,161093.000,26604,2,PI,1,100,158477
1631709025.566983,161131.000,26622,3,PI,1,100,158488
1631709025.605057,161169.000,26622,3,PI,1,100,158424
1631709025.643131,161207.000,26622,3,PI,1,100,158321
1631709025.686884,161250.667,26641,3,PI,1,100,158277
1631709025.730636,161294.333,26641,3,PI,1,100,158129
1631709025.774388,161338.000,26641,3,PI,1,100,157852
1631709025.806952,161370.500,26658,2,PI,1,100,157864
1631709025.839515,161403.000,26658,2,PI,1,100,157905
1631709025.882933,161446.333,26677,3,PI,1,100,157918
1631709025.926352,161489.667,26677,3,PI,1,100,157885
1631709025.969770,161533.000,26677,3,PI,1,100,157930
1631709026.002834,161566.000,26695,2,PI,1,100,157943
1631709026.035899,161599.000,26695,2,PI,1,100,157981
1631709026.079317,161642.333,26714,3,PI,1,100,157992
1631709026.122736,161685.667,26714,3,PI,1,100,158002
1631709026.166154,161729.000,26714,3,PI,1,100,158050
1631709026.204228,161767.000,26730,3,PI,1,100,158103
1631709026.242302,161805.000,26730,3,PI,1,100,158174
1631709026.280377,161843.000,26730,3,PI,1,100,158308
1631709026.320956,161883.500,26749,2,PI,1,100,158373
1631709026.361535,161924.000,26749,2,PI,1,100,158369
1631709026.399610,161962.000,26767,3,PI,1,100,158361
1631709026.437684,162000.000,26767,3,PI,1,100,158379
1631709026.475759,162038.000,26767,3,PI,1,100,158459
1631709026.516839,162079.000,26786,2,PI,1,100,158529
1631709026.557919,162120.000,26786,2,PI,1,100,158620
1631709026.595994,162158.000,26804,3,PI,1,100,158653
1631709026.634068,162196.000,26804,3,PI,1,100,158700
1631709026.672143,162234.000,26804,3,PI,1,100,158763
1631709026.710217,162272.000,26822,3,PI,1,100,158819
1631709026.748291,162310.000,26822,3,PI,1,100,158894
1631709026.786366,162348.000,26822,3,PI,1,100,158993
1631709026.826945,162388.500,26840,2,PI,1,100,159075
1631709026.867524,162429.000,26840,2,PI,1,100,159157
1631709026.905265,162466.667,26859,3,PI,1,100,159211
1631709026.943005,162504.333,26859,3,PI,1,100,159246
1631709026.980746,162542.000,26859,3,PI,1,100,159205
1631709027.022828,162584.000,26877,2,PI,1,100,159172
1631709027.064910,162626.000,26877,2,PI,1,100,159164
1631709027.102650,162663.667,26894,3,PI,1,100,159198
1631709027.140391,162701.333,26894,3,PI,1,100,159257
1631709027.178131,162739.000,26894,3,PI,1,100,159302
1631709027.216206,162777.000,26912,3,PI,1,100,159306
1631709027.254280,162815.000,26912,3,PI,1,100,159385
1631709027.292354,162853.000,26912,3,PI,1,100,159458
1631709027.332934,162893.500,26931,2,PI,1,100,159469
1631709027.373513,162934.000,26931,2,PI,1,100,159505
1631709027.411587,162972.000,26949,3,PI,1,100,159410
1631709027.449662,163010.000,26949,3,PI,1,100,159411
1631709027.487736,163048.000,26949,3,PI,1,100,159447
1631709027.528316,163088.500,26968,2,PI,1,100,159445
1631709027.568895,163129.000,26968,2,PI,1,100,159430
1631709027.607637,163167.667,26984,3,PI,1,100,159366
1631709027.646380,163206.333,26984,3,PI,1,100,159367
1631709027.685122,163245.000,26984,3,PI,1,100,159326
1631709027.722862,163282.667,27009,3,PI,1,100,159338
1631709027.760603,163320.333,27009,3,PI,1,100,159392
1631709027.798343,163358.000,27009,3,PI,1,100,159358
1631709027.839424,163399.000,27027,2,PI,1,100,159313
1631709027.880504,163440.000,27027,2,PI,1,100,159261
1631709027.917910,163477.333,27046,3,PI,1,100,159257
1631709027.955317,163514.667,27046,3,PI,1,100,159253
1631709027.992723,163552.000,27046,3,PI,1,100,159198
1631709028.033803,163593.000,27064,2,PI,1,100,158934
1631709028.074884,163634.000,27064,2,PI,1,100,158900
1631709028.113292,163672.333,27081,3,PI,1,100,158927
1631709028.151700,163710.667,27081,3,PI,1,100,158839
1631709028.190109,163749.000,27081,3,PI,1,100,158781
1631709028.233861,163792.667,27099,3,PI,1,100,158791
1631709028.277613,163836.333,27099,3,PI,1,100,158677
1631709028.321365,163880.000,27099,3,PI,1,100,158495
1631709028.353929,163912.500,27118,2,PI,1,100,158342
1631709028.386493,163945.000,27118,2,PI,1,100,158205
1631709028.429911,163988.333,27136,3,PI,1,100,158168
1631709028.473329,164031.667,27136,3,PI,1,100,158223
1631709028.516747,164075.000,27136,3,PI,1,100,158332
1631709028.549812,164108.000,27153,2,PI,1,100,158357
1631709028.582876,164141.000,27153,2,PI,1,100,158304
1631709028.626963,164185.000,27171,3,PI,1,100,158244
1631709028.671049,164229.000,27171,3,PI,1,100,158138
1631709028.715135,164273.000,27171,3,PI,1,100,158089
1631709028.752875,164310.667,27191,3,PI,1,100,158018
1631709028.790616,164348.333,27191,3,PI,1,100,157993
1631709028.828356,164386.000,27191,3,PI,1,100,158022
1631709028.869437,164427.000,27209,2,PI,1,100,158025
1631709028.910517,164468.000,27209,2,PI,1,100,158008
1631709028.947589,164505.000,27226,3,PI,1,100,158039
1631709028.984662,164542.000,27226,3,PI,1,100,158053
1631709029.021734,164579.000,27226,3,PI,1,100,158028
1631709029.063315,164620.500,27244,2,PI,1,100,157941
1631709029.104897,164662.000,27244,2,PI,1,100,157791
1631709029.148649,164705.667,27263,3,PI,1,100,157761
1631709029.192401,164749.333,27263,3,PI,1,100,157759
1631709029.236153,164793.000,27263,3,PI,1,100,157771
1631709029.277734,164834.500,27281,2,PI,1,100,157808
1631709029.319316,164876.000,27281,2,PI,1,100,157841
1631709029.359895,164916.500,27300,2,PI,1,100,157868
1631709029.400474,164957.000,27300,2,PI,1,100,157912
1631709029.438883,164995.333,27316,3,PI,1,100,157990
1631709029.477291,165033.667,27316,3,PI,1,100,158130
1631709029.515699,165072.000,27316,3,PI,1,100,158270
1631709029.556279,165112.500,27335,2,PI,1,100,158356
1631709029.596858,165153.000,27335,2,PI,1,100,158426
1631709029.635266,165191.333,27354,3,PI,1,100,158444
1631709029.673675,165229.667,27354,3,PI,1,100,158211
1631709029.712083,165268.000,27354,3,PI,1,100,158056
1631709029.755835,165311.667,27373,3,PI,1,100,157994
1631709029.799587,165355.333,27373,3,PI,1,100,157963
1631709029.843340,165399.000,27373,3,PI,1,100,158019
1631709029.876404,165432.000,27389,2,PI,1,100,158097
1631709029.909469,165465.000,27389,2,PI,1,100,158140
1631709029.952553,165508.000,27408,3,PI,1,100,158205
1631709029.995637,165551.000,27408,3,PI,1,100,158260
1631709030.038722,165594.000,27408,3,PI,1,100,158328
1631709030.071786,165627.000,27426,2,PI,1,100,158408
1631709030.104851,165660.000,27426,2,PI,1,100,158492
1631709030.148269,165703.333,27445,3,PI,1,100,158574
1631709030.191687,165746.667,27445,3,PI,1,100,158614
1631709030.235105,165790.000,27445,3,PI,1,100,158464
1631709030.276186,165831.000,27463,2,PI,1,100,158245
1631709030.317266,165872.000,27463,2,PI,1,100,158186
1631709030.355674,165910.333,27480,3,PI,1,100,158168
1631709030.394083,165948.667,27480,3,PI,1,100,158157
1631709030.432491,165987.000,27480,3,PI,1,100,158226
1631709030.470565,166025.000,27498,3,PI,1,100,158205
1631709030.508640,166063.000,27498,3,PI,1,100,158244
1631709030.546714,166101.000,27498,3,PI,1,100,158261
1631709030.587294,166141.500,27517,2,PI,1,100,158261
1631709030.627873,166182.000,27517,2,PI,1,100,158340
1631709030.666281,166220.333,27536,3,PI,1,100,158368
1631709030.704690,166258.667,27536,3,PI,1,100,158423
1631709030.743098,166297.000,27536,3,PI,1,100,158463
1631709030.780504,166334.333,27553,3,PI,1,100,158496
1631709030.817911,166371.667,27553,3,PI,1,100,158551
1631709030.855317,166409.000,27553,3,PI,1,100,158374
1631709030.896398,166450.000,27571,2,PI,1,100,158205
1631709030.937478,166491.000,27571,2,PI,1,100,158165
1631709030.975552,166529.000,27590,3,PI,1,100,158111
1631709031.013627,166567.000,27590,3,PI,1,100,158148
1631709031.051701,166605.000,27590,3,PI,1,100,158162
1631709031.092781,166646.000,27608,2,PI,1,100,158183
1631709031.133862,166687.000,27608,2,PI,1,100,158191
1631709031.171936,166725.000,27627,3,PI,1,100,158198
1631709031.210011,166763.000,27627,3,PI,1,100,158250
1631709031.248085,166801.000,27627,3,PI,1,100,158279
1631709031.289165,166842.000,27643,2,PI,1,100,158318
1631709031.330245,166883.000,27643,2,PI,1,100,158358
1631709031.368654,166921.333,27662,3,PI,1,100,158435
1631709031.407062,166959.667,27662,3,PI,1,100,158501
1631709031.445471,166998.000,27662,3,PI,1,100,158589
1631709031.483879,167036.333,27680,3,PI,1,100,158667
1631709031.522287,167074.667,27680,3,PI,1,100,158622
1631709031.560696,167113.000,27680,3,PI,1,100,158433
1631709031.600774,167153.000,27699,2,PI,1,100,158322
1631709031.640852,167193.000,27699,2,PI,1,100,158322
1631709031.678927,167231.000,27716,3,PI,1,100,158338
1631709031.717001,167269.000,27716,3,PI,1,100,158385
1631709031.755076,167307.000,27716,3,PI,1,100,158461
1631709031.795655,167347.500,27735,2,PI,1,100,158509
1631709031.836234,167388.000,27735,2,PI,1,100,158583
1631709031.874643,167426.333,27753,3,PI,1,100,158635
1631709031.913051,167464.667,27753,3,PI,1,100,158697
1631709031.951459,167503.000,27753,3,PI,1,100,158724
1631709031.992540,167544.000,27772,2,PI,1,100,158807
1631709032.033620,167585.000,27772,2,PI,1,100,158884
1631709032.071694,167623.000,27788,3,PI,1,100,158920
1631709032.109769,167661.000,27788,3,PI,1,100,158935
1631709032.147843,167699.000,27788,3,PI,1,100,158924
1631709032.188923,167740.000,27807,2,PI,1,100,158953
1631709032.230004,167781.000,27807,2,PI,1,100,158962
1631709032.267744,167818.667,27825,3,PI,1,100,158841
1631709032.305485,167856.333,27825,3,PI,1,100,158698
1631709032.343225,167894.000,27825,3,PI,1,100,158653
1631709032.386643,167937.333,27844,3,PI,1,100,158674
1631709032.430061,167980.667,27844,3,PI,1,100,158709
1631709032.473480,168024.000,27844,3,PI,1,100,158753
1631709032.507045,168057.500,27862,2,PI,1,100,158757
1631709032.540611,168091.000,27862,2,PI,1,100,158779
1631709032.584029,168134.333,27880,3,PI,1,100,158861
1631709032.627447,168177.667,27880,3,PI,1,100,158884
1631709032.670865,168221.000,27880,3,PI,1,100,158917
1631709032.703429,168253.500,27898,2,PI,1,100,158918
1631709032.735993,168286.000,27898,2,PI,1,100,158940
1631709032.779411,168329.333,27917,3,PI,1,100,158957
1631709032.822829,168372.667,27917,3,PI,1,100,158951
1631709032.866247,168416.000,27917,3,PI,1,100,158956
1631709032.904321,168454.000,27940,3,PI,1,100,158959
1631709032.942396,168492.000,27940,3,PI,1,100,158853
1631709032.980470,168530.000,27940,3,PI,1,100,158752
1631709033.021551,168571.000,27957,2,PI,1,100,158708
1631709033.062631,168612.000,27957,2,PI,1,100,158722
1631709033.101373,168650.667,27975,3,PI,1,100,158768
1631709033.140116,168689.333,27975,3,PI,1,100,158791
1631709033.178858,168728.000,27975,3,PI,1,100,158836
1631709033.218936,168768.000,27994,2,PI,1,100,158873
1631709033.259015,168808.000,27994,2,PI,1,100,158893
1631709033.297423,168846.333,28012,3,PI,1,100,158935
1631709033.335831,168884.667,28012,3,PI,1,100,158925
1631709033.374240,168923.000,28012,3,PI,1,100,158954
1631709033.411980,168960.667,28031,3,PI,1,100,158971
1631709033.449721,168998.333,28031,3,PI,1,100,158981
1631709033.487461,169036.000,28031,3,PI,1,100,159009
1631709033.526203,169074.667,28047,3,PI,1,100,158999
1631709033.564946,169113.333,28047,3,PI,1,100,159027
1631709033.603688,169152.000,28047,3,PI,1,100,158956
1631709033.644268,169192.500,28067,2,PI,1,100,158825
1631709033.684847,169233.000,28067,2,PI,1,100,158785
1631709033.722587,169270.667,28085,3,PI,1,100,158767
1631709033.760328,169308.333,28085,3,PI,1,100,158815
1631709033.798068,169346.000,28085,3,PI,1,100,158866
1631709033.839148,169387.000,28104,2,PI,1,100,158854
1631709033.880229,169428.000,28104,2,PI,1,100,158905
1631709033.918303,169466.000,28122,3,PI,1,100,158898
1631709033.956378,169504.000,28122,3,PI,1,100,158959
1631709033.994452,169542.000,28122,3,PI,1,100,158991
1631709034.032192,169579.667,28139,3,PI,1,100,159018
1631709034.069933,169617.333,28139,3,PI,1,100,159026
1631709034.107673,169655.000,28139,3,PI,1,100,159022
1631709034.149254,169696.500,28157,2,PI,1,100,159040
1631709034.190836,169738.000,28157,2,PI,1,100,159043
1631709034.228576,169775.667,28176,3,PI,1,100,159023
1631709034.266316,169813.333,28176,3,PI,1,100,158876
1631709034.304057,169851.000,28176,3,PI,1,100,158776
1631709034.345137,169892.000,28194,2,PI,1,100,158765
1631709034.386218,169933.000,28194,2,PI,1,100,158788
1631709034.423958,169970.667,28213,3,PI,1,100,158814
1631709034.461698,170008.333,28213,3,PI,1,100,158834
1631709034.499439,170046.000,28213,3,PI,1,100,158841
1631709034.543525,170090.000,28230,3,PI,1,100,158900
1631709034.587611,170134.000,28230,3,PI,1,100,158942
1631709034.631697,170178.000,28230,3,PI,1,100,158959
1631709034.664261,170210.500,28249,2,PI,1,100,158969
1631709034.696825,170243.000,28249,2,PI,1,100,158982
1631709034.740577,170286.667,28267,3,PI,1,100,159038
1631709034.784329,170330.333,28267,3,PI,1,100,159046
1631709034.828081,170374.000,28267,3,PI,1,100,159048
1631709034.860645,170406.500,28286,2,PI,1,100,159043
1631709034.893208,170439.000,28286,2,PI,1,100,159042
1631709034.936626,170482.333,28302,3,PI,1,100,158908
1631709034.980045,170525.667,28302,3,PI,1,100,158800
1631709035.023463,170569.000,28302,3,PI,1,100,158790
1631709035.061871,170607.333,28321,3,PI,1,100,158794
1631709035.100280,170645.667,28321,3,PI,1,100,158840
1631709035.138688,170684.000,28321,3,PI,1,100,158864
1631709035.179768,170725.000,28339,2,PI,1,100,158889
1631709035.220849,170766.000,28339,2,PI,1,100,158883
1631709035.258923,170804.000,28358,3,PI,1,100,158936
1631709035.296997,170842.000,28358,3,PI,1,100,158991
1631709035.335072,170880.000,28358,3,PI,1,100,159017
1631709035.376152,170921.000,28374,2,PI,1,100,159043
1631709035.417232,170962.000,28374,2,PI,1,100,159065
1631709035.455307,171000.000,28393,3,PI,1,100,159044
1631709035.493381,171038.000,28393,3,PI,1,100,159080
1631709035.531456,171076.000,28393,3,PI,1,100,159091
1631709035.569196,171113.667,28412,3,PI,1,100,159082
1631709035.606936,171151.333,28412,3,PI,1,100,158986
1631709035.644677,171189.000,28412,3,PI,1,100,158830
1631709035.685757,171230.000,28431,2,PI,1,100,158837
1631709035.726837,171271.000,28431,2,PI,1,100,158854
1631709035.765246,171309.333,28449,3,PI,1,100,158887
1631709035.803654,171347.667,28449,3,PI,1,100,158922
1631709035.842062,171386.000,28449,3,PI,1,100,158922
1631709035.882642,171426.500,28466,2,PI,1,100,158957
1631709035.923221,171467.000,28466,2,PI,1,100,158999
1631709035.961630,171505.333,28484,3,PI,1,100,159021
1631709036.000038,171543.667,28484,3,PI,1,100,159058
1631709036.038446,171582.000,28484,3,PI,1,100,159067
1631709036.075519,171619.000,28503,3,PI,1,100,159069
1631709036.112591,171656.000,28503,3,PI,1,100,159096
1631709036.149664,171693.000,28503,3,PI,1,100,159104
1631709036.191245,171734.500,28521,2,PI,1,100,159128
1631709036.232826,171776.000,28521,2,PI,1,100,159109
1631709036.271235,171814.333,28538,3,PI,1,100,159076
1631709036.309643,171852.667,28538,3,PI,1,100,158960
1631709036.348051,171891.000,28538,3,PI,1,100,158912
1631709036.388631,171931.500,28556,2,PI,1,100,158914
1631709036.429210,171972.000,28556,2,PI,1,100,158921
1631709036.467284,172010.000,28575,3,PI,1,100,158967
1631709036.505359,172048.000,28575,3,PI,1,100,158992
1631709036.543433,172086.000,28575,3,PI,1,100,158982
1631709036.584513,172127.000,28594,2,PI,1,100,159020
1631709036.625594,172168.000,28594,2,PI,1,100,159016
1631709036.663334,172205.667,28613,3,PI,1,100,159090
1631709036.701075,172243.333,28613,3,PI,1,100,159116
1631709036.738815,172281.000,28613,3,PI,1,100,159120
1631709036.780396,172322.500,28629,2,PI,1,100,159143
1631709036.821978,172364.000,28629,2,PI,1,100,159150
1631709036.860052,172402.000,28648,3,PI,1,100,159171
1631709036.898126,172440.000,28648,3,PI,1,100,159104
1631709036.936201,172478.000,28648,3,PI,1,100,158875
1631709036.976780,172518.500,28666,2,PI,1,100,158802
1631709037.017359,172559.000,28666,2,PI,1,100,158749
1631709037.055100,172596.667,28685,3,PI,1,100,158729
1631709037.092840,172634.333,28685,3,PI,1,100,158780
1631709037.130581,172672.000,28685,3,PI,1,100,158804
1631709037.173999,172715.333,28701,3,PI,1,100,158859
1631709037.217417,172758.667,28701,3,PI,1,100,158925
1631709037.260835,172802.000,28701,3,PI,1,100,158971
1631709037.293399,172834.500,28720,2,PI,1,100,158989
1631709037.325962,172867.000,28720,2,PI,1,100,159033
1631709037.370049,172911.000,28738,3,PI,1,100,159050
1631709037.414135,172955.000,28738,3,PI,1,100,159096
1631709037.458221,172999.000,28738,3,PI,1,100,159152
1631709037.490784,173031.500,28758,2,PI,1,100,159182
1631709037.523348,173064.000,28758,2,PI,1,100,159213
1631709037.567100,173107.667,28776,3,PI,1,100,159137
1631709037.610852,173151.333,28776,3,PI,1,100,159088
1631709037.654605,173195.000,28776,3,PI,1,100,159012
1631709037.692345,173232.667,28793,3,PI,1,100,158984
1631709037.730086,173270.333,28793,3,PI,1,100,158957
1631709037.767826,173308.000,28793,3,PI,1,100,158953
1631709037.808906,173349.000,28811,2,PI,1,100,158976
1631709037.849987,173390.000,28811,2,PI,1,100,158996
1631709037.888061,173428.000,28830,3,PI,1,100,159016
1631709037.926135,173466.000,28830,3,PI,1,100,158998
1631709037.964210,173504.000,28830,3,PI,1,100,159030
1631709038.002618,173542.333,28853,3,PI,1,100,159069
1631709038.041027,173580.667,28853,3,PI,1,100,159090
1631709038.079435,173619.000,28853,3,PI,1,100,159106
1631709038.116841,173656.333,28872,3,PI,1,100,159117
1631709038.154248,173693.667,28872,3,PI,1,100,159144
1631709038.191654,173731.000,28872,3,PI,1,100,159165
1631709038.230062,173769.333,28888,3,PI,1,100,159151
1631709038.268471,173807.667,28888,3,PI,1,100,159032
1631709038.306879,173846.000,28888,3,PI,1,100,158905
1631709038.347960,173887.000,28907,2,PI,1,100,158861
1631709038.389040,173928.000,28907,2,PI,1,100,158861
1631709038.427782,173966.667,28925,3,PI,1,100,158869
1631709038.466525,174005.333,28925,3,PI,1,100,158914
1631709038.505267,174044.000,28925,3,PI,1,100,158961
1631709038.545846,174084.500,28945,2,PI,1,100,158979
1631709038.586426,174125.000,28945,2,PI,1,100,159046
1631709038.624500,174163.000,28963,3,PI,1,100,159089
1631709038.662575,174201.000,28963,3,PI,1,100,159154
1631709038.700649,174239.000,28963,3,PI,1,100,159186
1631709038.740727,174279.000,28980,2,PI,1,100,159206
1631709038.780806,174319.000,28980,2,PI,1,100,159248
1631709038.819214,174357.333,28998,3,PI,1,100,159307
1631709038.857622,174395.667,28998,3,PI,1,100,159361
1631709038.896031,174434.000,28998,3,PI,1,100,159374
1631709038.937111,174475.000,29017,2,PI,1,100,159309
1631709038.978191,174516.000,29017,2,PI,1,100,159213
1631709039.016600,174554.333,29035,3,PI,1,100,159218
1631709039.055008,174592.667,29035,3,PI,1,100,159228
1631709039.093416,174631.000,29035,3,PI,1,100,159234
1631709039.134497,174672.000,29052,2,PI,1,100,159240
1631709039.175577,174713.000,29052,2,PI,1,100,159235
1631709039.213651,174751.000,29070,3,PI,1,100,159159
1631709039.251726,174789.000,29070,3,PI,1,100,159072
1631709039.289800,174827.000,29070,3,PI,1,100,159054
1631709039.333218,174870.333,29089,3,PI,1,100,159066
1631709039.376637,174913.667,29089,3,PI,1,100,159171
1631709039.420055,174957.000,29089,3,PI,1,100,159236
1631709039.453119,174990.000,29108,2,PI,1,100,159268
1631709039.486184,175023.000,29108,2,PI,1,100,159309
1631709039.529936,175066.667,29125,3,PI,1,100,159387
1631709039.573688,175110.333,29125,3,PI,1,100,159511
1631709039.617440,175154.000,29125,3,PI,1,100,159608
1631709039.650505,175187.000,29143,2,PI,1,100,159671
1631709039.683570,175220.000,29143,2,PI,1,100,159739
1631709039.726654,175263.000,29162,3,PI,1,100,159771
1631709039.769738,175306.000,29162,3,PI,1,100,159746
1631709039.812822,175349.000,29162,3,PI,1,100,159726
1631709039.850897,175387.000,29180,3,PI,1,100,159704
1631709039.888971,175425.000,29180,3,PI,1,100,159691
1631709039.927046,175463.000,29180,3,PI,1,100,159706
1631709039.968126,175504.000,29199,2,PI,1,100,159705
1631709040.009206,175545.000,29199,2,PI,1,100,159739
1631709040.047615,175583.333,29215,3,PI,1,100,159751
1631709040.086023,175621.667,29215,3,PI,1,100,159758
1631709040.124431,175660.000,29215,3,PI,1,100,159781
1631709040.165512,175701.000,29234,2,PI,1,100,159751
1631709040.206592,175742.000,29234,2,PI,1,100,159748
1631709040.245000,175780.333,29252,3,PI,1,100,159700
1631709040.283409,175818.667,29252,3,PI,1,100,159678
1631709040.321817,175857.000,29252,3,PI,1,100,159690
1631709040.362396,175897.500,29271,2,PI,1,100,159655
1631709040.402976,175938.000,29271,2,PI,1,100,159677
1631709040.441050,175976.000,29288,3,PI,1,100,159676
1631709040.479124,176014.000,29288,3,PI,1,100,159690
1631709040.517199,176052.000,29288,3,PI,1,100,159711
1631709040.555607,176090.333,29307,3,PI,1,100,159736
1631709040.594016,176128.667,29307,3,PI,1,100,159763
1631709040.632424,176167.000,29307,3,PI,1,100,159812
1631709040.673003,176207.500,29325,2,PI,1,100,159799
1631709040.713583,176248.000,29325,2,PI,1,100,159849
1631709040.751991,176286.333,29344,3,PI,1,100,159870
1631709040.790399,176324.667,29344,3,PI,1,100,159866
1631709040.828808,176363.000,29344,3,PI,1,100,159837
1631709040.869387,176403.500,29362,2,PI,1,100,159767
1631709040.909966,176444.000,29362,2,PI,1,100,159740
1631709040.948375,176482.333,29379,3,PI,1,100,159702
1631709040.986783,176520.667,29379,3,PI,1,100,159681
1631709041.025192,176559.000,29379,3,PI,1,100,159677
1631709041.063266,176597.000,29397,3,PI,1,100,159636
1631709041.101340,176635.000,29397,3,PI,1,100,159636
1631709041.139415,176673.000,29397,3,PI,1,100,159642
1631709041.180996,176714.500,29416,2,PI,1,100,159637
1631709041.222577,176756.000,29416,2,PI,1,100,159631
1631709041.260652,176794.000,29434,3,PI,1,100,159627
1631709041.298726,176832.000,29434,3,PI,1,100,159620
1631709041.336801,176870.000,29434,3,PI,1,100,159633
1631709041.377380,176910.500,29451,2,PI,1,100,159629
1631709041.417959,176951.000,29451,2,PI,1,100,159579
1631709041.456033,176989.000,29470,3,PI,1,100,159511
1631709041.494108,177027.000,29470,3,PI,1,100,159475
1631709041.532182,177065.000,29470,3,PI,1,100,159474
1631709041.573263,177106.000,29489,2,PI,1,100,159471
1631709041.614343,177147.000,29489,2,PI,1,100,159451
1631709041.652417,177185.000,29507,3,PI,1,100,159424
1631709041.690492,177223.000,29507,3,PI,1,100,159393
1631709041.728566,177261.000,29507,3,PI,1,100,159405
1631709041.770147,177302.500,29524,2,PI,1,100,159421
1631709041.811729,177344.000,29524,2,PI,1,100,159419
1631709041.849469,177381.667,29542,3,PI,1,100,159406
1631709041.887209,177419.333,29542,3,PI,1,100,159423
1631709041.924950,177457.000,29542,3,PI,1,100,159436
1631709041.968702,177500.667,29561,3,PI,1,100,159404
1631709042.012454,177544.333,29561,3,PI,1,100,159348
1631709042.056206,177588.000,29561,3,PI,1,100,159261
1631709042.089271,177621.000,29579,2,PI,1,100,159301
1631709042.122336,177654.000,29579,2,PI,1,100,159293
1631709042.165420,177697.000,29598,3,PI,1,100,159279
1631709042.208504,177740.000,29598,3,PI,1,100,159257
1631709042.251588,177783.000,29598,3,PI,1,100,159240
1631709042.284152,177815.500,29614,2,PI,1,100,159270
1631709042.316715,177848.000,29614,2,PI,1,100,159269
1631709042.360468,177891.667,29633,3,PI,1,100,159275
1631709042.404220,177935.333,29633,3,PI,1,100,159259
1631709042.447972,177979.000,29633,3,PI,1,100,159292
1631709042.485713,178016.667,29652,3,PI,1,100,159289
1631709042.523453,178054.333,29652,3,PI,1,100,159280
1631709042.561193,178092.000,29652,3,PI,1,100,159229
1631709042.602273,178133.000,29671,2,PI,1,100,159157
1631709042.643354,178174.000,29671,2,PI,1,100,159178
1631709042.681428,178212.000,29687,3,PI,1,100,159150
1631709042.719503,178250.000,29687,3,PI,1,100,159169
1631709042.757577,178288.000,29687,3,PI,1,100,159164
1631709042.799158,178329.500,29706,2,PI,1,100,159127
1631709042.840739,178371.000,29706,2,PI,1,100,159170
1631709042.879148,178409.333,29724,3,PI,1,100,159162
1631709042.917556,178447.667,29724,3,PI,1,100,159201
1631709042.955965,178486.000,29724,3,PI,1,100,159218
1631709042.996544,178526.500,29743,2,PI,1,100,159210
1631709043.037123,178567.000,29743,2,PI,1,100,159270
1631709043.076200,178606.000,29767,5,PI,1,100,159268
1631709043.115276,178645.000,29767,5,PI,1,100,159240
1631709043.154352,178684.000,29767,5,PI,1,100,159195
1631709043.193429,178723.000,29767,5,PI,1,100,159162
1631709043.232505,178762.000,29767,5,PI,1,100,159169
1631709043.265069,178794.500,29785,2,PI,1,100,159167
1631709043.297632,178827.000,29785,2,PI,1,100,159169
1631709043.341385,178870.667,29804,3,PI,1,100,159174
1631709043.385137,178914.333,29804,3,PI,1,100,159182
1631709043.428889,178958.000,29804,3,PI,1,100,159206
1631709043.466629,178995.667,29821,3,PI,1,100,159207
1631709043.504370,179033.333,29821,3,PI,1,100,159223
1631709043.542110,179071.000,29821,3,PI,1,100,159233
1631709043.583190,179112.000,29840,2,PI,1,100,159238
1631709043.624271,179153.000,29840,2,PI,1,100,159271
1631709043.662345,179191.000,29858,3,PI,1,100,159250
1631709043.700420,179229.000,29858,3,PI,1,100,159211
1631709043.738494,179267.000,29858,3,PI,1,100,159165
1631709043.779574,179308.000,29877,2,PI,1,100,159145
1631709043.820655,179349.000,29877,2,PI,1,100,159165
1631709043.858395,179386.667,29895,3,PI,1,100,159185
1631709043.896135,179424.333,29895,3,PI,1,100,159171
1631709043.933876,179462.000,29895,3,PI,1,100,159174
1631709043.971950,179500.000,29912,3,PI,1,100,159183
1631709044.010025,179538.000,29912,3,PI,1,100,159196
1631709044.048099,179576.000,29912,3,PI,1,100,159204
1631709044.089179,179617.000,29930,2,PI,1,100,159215
1631709044.130260,179658.000,29930,2,PI,1,100,159248
1631709044.168000,179695.667,29949,3,PI,1,100,159250
1631709044.205740,179733.333,29949,3,PI,1,100,159254
1631709044.243481,179771.000,29949,3,PI,1,100,159208
1631709044.281555,179809.000,29967,3,PI,1,100,159140
1631709044.319630,179847.000,29967,3,PI,1,100,159144
1631709044.357704,179885.000,29967,3,PI,1,100,159128
1631709044.398784,179926.000,29985,2,PI,1,100,159134
1631709044.439865,179967.000,29985,2,PI,1,100,159157
1631709044.477939,180005.000,30003,3,PI,1,100,159168
1631709044.516013,180043.000,30003,3,PI,1,100,159173
1631709044.554088,180081.000,30003,3,PI,1,100,159150
1631709044.595168,180122.000,30022,2,PI,1,100,159178
1631709044.636248,180163.000,30022,2,PI,1,100,159217
1631709044.674323,180201.000,30040,3,PI,1,100,159234
1631709044.712397,180239.000,30040,3,PI,1,100,159247
1631709044.750472,180277.000,30040,3,PI,1,100,159247
1631709044.788212,180314.667,30059,3,PI,1,100,159223
1631709044.825953,180352.333,30059,3,PI,1,100,159188
1631709044.863693,180390.000,30059,3,PI,1,100,159155
1631709044.904773,180431.000,30075,2,PI,1,100,159121
1631709044.945853,180472.000,30075,2,PI,1,100,159120
1631709044.984262,180510.333,30094,3,PI,1,100,159157
1631709045.022670,180548.667,30094,3,PI,1,100,159161
1631709045.061079,180587.000,30094,3,PI,1,100,159170
1631709045.101658,180627.500,30112,2,PI,1,100,159150
1631709045.142237,180668.000,30112,2,PI,1,100,159166
1631709045.180646,180706.333,30131,3,PI,1,100,159217
1631709045.219054,180744.667,30131,3,PI,1,100,159217
1631709045.257463,180783.000,30131,3,PI,1,100,159243
1631709045.298543,180824.000,30147,2,PI,1,100,159241
1631709045.339623,180865.000,30147,2,PI,1,100,159268
1631709045.377363,180902.667,30167,3,PI,1,100,159286
1631709045.415104,180940.333,30167,3,PI,1,100,159223
1631709045.452844,180978.000,30167,3,PI,1,100,159187
1631709045.493924,181019.000,30185,2,PI,1,100,159161
1631709045.535005,181060.000,30185,2,PI,1,100,159155
1631709045.573413,181098.333,30204,3,PI,1,100,159154
1631709045.611822,181136.667,30204,3,PI,1,100,159162
1631709045.650230,181175.000,30204,3,PI,1,100,159163
1631709045.690809,181215.500,30222,2,PI,1,100,159174
1631709045.731389,181256.000,30222,2,PI,1,100,159175
1631709045.769797,181294.333,30239,3,PI,1,100,159176
1631709045.808205,181332.667,30239,3,PI,1,100,159204
1631709045.846614,181371.000,30239,3,PI,1,100,159207
1631709045.889698,181414.000,30257,3,PI,1,100,159227
1631709045.932782,181457.000,30257,3,PI,1,100,159248
1631709045.975866,181500.000,30257,3,PI,1,100,159230
1631709046.008931,181533.000,30276,2,PI,1,100,159203
1631709046.041996,181566.000,30276,2,PI,1,100,159153
1631709046.085748,181609.667,30294,3,PI,1,100,159139
1631709046.129500,181653.333,30294,3,PI,1,100,159102
1631709046.173252,181697.000,30294,3,PI,1,100,159107
1631709046.205816,181729.500,30311,2,PI,1,100,159099
1631709046.238379,181762.000,30311,2,PI,1,100,159087
1631709046.282131,181805.667,30329,3,PI,1,100,159121
1631709046.325884,181849.333,30329,3,PI,1,100,159109
1631709046.369636,181893.000,30329,3,PI,1,100,159140
1631709046.402700,181926.000,30349,2,PI,1,100,159141
1631709046.435765,181959.000,30349,2,PI,1,100,159138
1631709046.479183,182002.333,30367,3,PI,1,100,159178
1631709046.522601,182045.667,30367,3,PI,1,100,159167
1631709046.566020,182089.000,30367,3,PI,1,100,159213
1631709046.604762,182127.667,30384,3,PI,1,100,159191
1631709046.643504,182166.333,30384,3,PI,1,100,159111
1631709046.682247,182205.000,30384,3,PI,1,100,159095
1631709046.722325,182245.000,30402,2,PI,1,100,159055
1631709046.762403,182285.000,30402,2,PI,1,100,159081
1631709046.800478,182323.000,30421,3,PI,1,100,159091
1631709046.838552,182361.000,30421,3,PI,1,100,159094
1631709046.876627,182399.000,30421,3,PI,1,100,159112
1631709046.914367,182436.667,30439,3,PI,1,100,159125
1631709046.952107,182474.333,30439,3,PI,1,100,159142
1631709046.989848,182512.000,30439,3,PI,1,100,159164
1631709047.030928,182553.000,30458,2,PI,1,100,159175
1631709047.072008,182594.000,30458,2,PI,1,100,159196
1631709047.110083,182632.000,30474,3,PI,1,100,159221
1631709047.148157,182670.000,30474,3,PI,1,100,159235
1631709047.186232,182708.000,30474,3,PI,1,100,159242
1631709047.227813,182749.500,30493,2,PI,1,100,159195
1631709047.269394,182791.000,30493,2,PI,1,100,159125
1631709047.307469,182829.000,30512,3,PI,1,100,159059
1631709047.345543,182867.000,30512,3,PI,1,100,159036
1631709047.383617,182905.000,30512,3,PI,1,100,159043
1631709047.422026,182943.333,30531,3,PI,1,100,159069
1631709047.460434,182981.667,30531,3,PI,1,100,159092
1631709047.498842,183020.000,30531,3,PI,1,100,159116
1631709047.538921,183060.000,30547,2,PI,1,100,159153
1631709047.578999,183100.000,30547,2,PI,1,100,159194
1631709047.617408,183138.333,30566,3,PI,1,100,159220
1631709047.655816,183176.667,30566,3,PI,1,100,159213
1631709047.694224,183215.000,30566,3,PI,1,100,159249
1631709047.734804,183255.500,30584,2,PI,1,100,159275
1631709047.775383,183296.000,30584,2,PI,1,100,159271
1631709047.813791,183334.333,30603,3,PI,1,100,159213
1631709047.852200,183372.667,30603,3,PI,1,100,159128
1631709047.890608,183411.000,30603,3,PI,1,100,159117
1631709047.934026,183454.333,30621,3,PI,1,100,159059
1631709047.977445,183497.667,30621,3,PI,1,100,158956
1631709048.020863,183541.000,30621,3,PI,1,100,158810
1631709048.053927,183574.000,30638,2,PI,1,100,158679
1631709048.086992,183607.000,30638,2,PI,1,100,158571
1631709048.130744,183650.667,30656,3,PI,1,100,158491
1631709048.174496,183694.333,30656,3,PI,1,100,158304
1631709048.218248,183738.000,30656,3,PI,1,100,158125
1631709048.256657,183776.333,30680,3,PI,1,100,158053
1631709048.295065,183814.667,30680,3,PI,1,100,157891
1631709048.333474,183853.000,30680,3,PI,1,100,157846
1631709048.374053,183893.500,30699,2,PI,1,100,157812
1631709048.414632,183934.000,30699,2,PI,1,100,157663
1631709048.453041,183972.333,30718,3,PI,1,100,157541
1631709048.491449,184010.667,30718,3,PI,1,100,157399
1631709048.529857,184049.000,30718,3,PI,1,100,157427
1631709048.569936,184089.000,30734,2,PI,1,100,157362
1631709048.610014,184129.000,30734,2,PI,1,100,157357
1631709048.653098,184172.000,30753,3,PI,1,100,157431
1631709048.696182,184215.000,30753,3,PI,1,100,157492
1631709048.739267,184258.000,30753,3,PI,1,100,157513
1631709048.779345,184298.000,30771,2,PI,1,100,157538
1631709048.819423,184338.000,30771,2,PI,1,100,157618
1631709048.858500,184377.000,30790,3,PI,1,100,157523
1631709048.897576,184416.000,30790,3,PI,1,100,157545
1631709048.936652,184455.000,30790,3,PI,1,100,157491
1631709048.985247,184503.500,30808,2,PI,1,100,157344
1631709049.033842,184552.000,30808,2,PI,1,100,157307
1631709049.071917,184590.000,30825,3,PI,1,100,157334
1631709049.109991,184628.000,30825,3,PI,1,100,157415
1631709049.148066,184666.000,30825,3,PI,1,100,157521
1631709049.188645,184706.500,30843,2,PI,1,100,157617
1631709049.229224,184747.000,30843,2,PI,1,100,157688
1631709049.270805,184788.500,30863,2,PI,1,100,157786
1631709049.312387,184830.000,30863,2,PI,1,100,157791
1631709049.356473,184874.000,30881,3,PI,1,100,157863
1631709049.400559,184918.000,30881,3,PI,1,100,157892
1631709049.444645,184962.000,30881,3,PI,1,100,157926
1631709049.485725,185003.000,30898,2,PI,1,100,157953
1631709049.526806,185044.000,30898,2,PI,1,100,157824
1631709049.569890,185087.000,30916,3,PI,1,100,157755
1631709049.612974,185130.000,30916,3,PI,1,100,157655
1631709049.656058,185173.000,30916,3,PI,1,100,157695
1631709049.696638,185213.500,30935,2,PI,1,100,157734
1631709049.737217,185254.000,30935,2,PI,1,100,157763
1631709049.778297,185295.000,30953,2,PI,1,100,157768
1631709049.819377,185336.000,30953,2,PI,1,100,157782
1631709049.863798,185380.333,30972,3,PI,1,100,157770
1631709049.908218,185424.667,30972,3,PI,1,100,157778
1631709049.952638,185469.000,30972,3,PI,1,100,157779
1631709049.992716,185509.000,30988,2,PI,1,100,157796
1631709050.032794,185549.000,30988,2,PI,1,100,157776
1631709050.076213,185592.333,31007,3,PI,1,100,157760
1631709050.119631,185635.667,31007,3,PI,1,100,157700
1631709050.163049,185679.000,31007,3,PI,1,100,157658
1631709050.204129,185720.000,31025,2,PI,1,100,157666
1631709050.245210,185761.000,31025,2,PI,1,100,157697
1631709050.285789,185801.500,31045,2,PI,1,100,157822
1631709050.326368,185842.000,31045,2,PI,1,100,157862
1631709050.369787,185885.333,31061,3,PI,1,100,157932
1631709050.413205,185928.667,31061,3,PI,1,100,157922
1631709050.456623,185972.000,31061,3,PI,1,100,157878
1631709050.498204,186013.500,31080,2,PI,1,100,157876
1631709050.539785,186055.000,31080,2,PI,1,100,157900
1631709050.583204,186098.333,31098,3,PI,1,100,157946
1631709050.626622,186141.667,31098,3,PI,1,100,157940
1631709050.670040,186185.000,31098,3,PI,1,100,157918
1631709050.711120,186226.000,31117,2,PI,1,100,157858
1631709050.752200,186267.000,31117,2,PI,1,100,157786
1631709050.790275,186305.000,31133,3,PI,1,100,157763
1631709050.828349,186343.000,31133,3,PI,1,100,157755
1631709050.866424,186381.000,31133,3,PI,1,100,157799
1631709050.915519,186430.000,31152,2,PI,1,100,157754
1631709050.964616,186479.000,31152,2,PI,1,100,157802
1631709051.003024,186517.333,31170,3,PI,1,100,157882
1631709051.041432,186555.667,31170,3,PI,1,100,157845
1631709051.079841,186594.000,31170,3,PI,1,100,157844
1631709051.120921,186635.000,31189,2,PI,1,100,157849
1631709051.162001,186676.000,31189,2,PI,1,100,157868
1631709051.211097,186725.000,31207,2,PI,1,100,157885
1631709051.260193,186774.000,31207,2,PI,1,100,157831
1631709051.297934,186811.667,31225,3,PI,1,100,157770
1631709051.335674,186849.333,31225,3,PI,1,100,157758
1631709051.373414,186887.000,31225,3,PI,1,100,157752
1631709051.416499,186930.000,31243,3,PI,1,100,157699
1631709051.459583,186973.000,31243,3,PI,1,100,157752
1631709051.502667,187016.000,31243,3,PI,1,100,157717
1631709051.544749,187058.000,31262,2,PI,1,100,157728
1631709051.586831,187100.000,31262,2,PI,1,100,157727
1631709051.627912,187141.000,31280,2,PI,1,100,157737
1631709051.668992,187182.000,31280,2,PI,1,100,157725
1631709051.712744,187225.667,31299,3,PI,1,100,157731
1631709051.756496,187269.333,31299,3,PI,1,100,157738
1631709051.800248,187313.000,31299,3,PI,1,100,157729
1631709051.840828,187353.500,31315,2,PI,1,100,157728
1631709051.881407,187394.000,31315,2,PI,1,100,157634
1631709051.924491,187437.000,31334,3,PI,1,100,157591
1631709051.967576,187480.000,31334,3,PI,1,100,157573
1631709052.010660,187523.000,31334,3,PI,1,100,157567
1631709052.050237,187562.500,31352,2,PI,1,100,157602
1631709052.089814,187602.000,31352,2,PI,1,100,157633
1631709052.131897,187644.000,31371,2,PI,1,100,157609
1631709052.173979,187686.000,31371,2,PI,1,100,157643
1631709052.217731,187729.667,31388,3,PI,1,100,157665
1631709052.261483,187773.333,31388,3,PI,1,100,157709
1631709052.305235,187817.000,31388,3,PI,1,100,157753
1631709052.346316,187858.000,31407,2,PI,1,100,157782
1631709052.387396,187899.000,31407,2,PI,1,100,157812
1631709052.430146,187941.667,31425,3,PI,1,100,157856
1631709052.472896,187984.333,31425,3,PI,1,100,157908
1631709052.515646,188027.000,31425,3,PI,1,100,157844
1631709052.556226,188067.500,31444,2,PI,1,100,157802
1631709052.596805,188108.000,31444,2,PI,1,100,157779
1631709052.637885,188149.000,31462,2,PI,1,100,157819
1631709052.678966,188190.000,31462,2,PI,1,100,157865
1631709052.723052,188234.000,31479,3,PI,1,100,157880
1631709052.767138,188278.000,31479,3,PI,1,100,157837
1631709052.811224,188322.000,31479,3,PI,1,100,157891
1631709052.851302,188362.000,31497,2,PI,1,100,157877
1631709052.891381,188402.000,31497,2,PI,1,100,157925
1631709052.935133,188445.667,31516,3,PI,1,100,158004
1631709052.978885,188489.333,31516,3,PI,1,100,158150
1631709053.022637,188533.000,31516,3,PI,1,100,158283
1631709053.063718,188574.000,31534,2,PI,1,100,158321
1631709053.104798,188615.000,31534,2,PI,1,100,158265
1631709053.143540,188653.667,31551,3,PI,1,100,158212
1631709053.182283,188692.333,31551,3,PI,1,100,158131
1631709053.221025,188731.000,31551,3,PI,1,100,158117
1631709053.261604,188771.500,31570,2,PI,1,100,158076
1631709053.302184,188812.000,31570,2,PI,1,100,158055
1631709053.342763,188852.500,31592,4,PI,1,100,158035
1631709053.383342,188893.000,31592,4,PI,1,100,157973
1631709053.423922,188933.500,31592,4,PI,1,100,157882
1631709053.464501,188974.000,31592,4,PI,1,100,157826
1631709053.508253,189017.667,31611,3,PI,1,100,157841
1631709053.552005,189061.333,31611,3,PI,1,100,157861
1631709053.595757,189105.000,31611,3,PI,1,100,157899
1631709053.636838,189146.000,31629,2,PI,1,100,157907
1631709053.677918,189187.000,31629,2,PI,1,100,157956
1631709053.718998,189228.000,31648,2,PI,1,100,157884
1631709053.760078,189269.000,31648,2,PI,1,100,157866
1631709053.803497,189312.333,31666,3,PI,1,100,157843
1631709053.846915,189355.667,31666,3,PI,1,100,157845
1631709053.890333,189399.000,31666,3,PI,1,100,157837
1631709053.928407,189437.000,31683,3,PI,1,100,157858
1631709053.966482,189475.000,31683,3,PI,1,100,157873
1631709054.004556,189513.000,31683,3,PI,1,100,157864
1631709054.054153,189562.500,31701,2,PI,1,100,157884
1631709054.103750,189612.000,31701,2,PI,1,100,157899
1631709054.143828,189652.000,31720,2,PI,1,100,157879
1631709054.183907,189692.000,31720,2,PI,1,100,157869
1631709054.222649,189730.667,31739,3,PI,1,100,157902
1631709054.261391,189769.333,31739,3,PI,1,100,157953
1631709054.300134,189808.000,31739,3,PI,1,100,157964
1631709054.340713,189848.500,31758,2,PI,1,100,157969
1631709054.381292,189889.000,31758,2,PI,1,100,157941
1631709054.424711,189932.333,31774,3,PI,1,100,157979
1631709054.468129,189975.667,31774,3,PI,1,100,157942
1631709054.511547,190019.000,31774,3,PI,1,100,157884
1631709054.552627,190060.000,31793,2,PI,1,100,157884
1631709054.593708,190101.000,31793,2,PI,1,100,157898
1631709054.636792,190144.000,31811,3,PI,1,100,157899
1631709054.679876,190187.000,31811,3,PI,1,100,157894
1631709054.722960,190230.000,31811,3,PI,1,100,157822
1631709054.764541,190271.500,31830,2,PI,1,100,157773
1631709054.806123,190313.000,31830,2,PI,1,100,157811
1631709054.844531,190351.333,31846,3,PI,1,100,157854
1631709054.882939,190389.667,31846,3,PI,1,100,157947
1631709054.921348,190428.000,31846,3,PI,1,100,158001
1631709054.970444,190477.000,31865,2,PI,1,100,157985
1631709055.019540,190526.000,31865,2,PI,1,100,157907
1631709055.060119,190566.500,31883,2,PI,1,100,157850
1631709055.100698,190607.000,31883,2,PI,1,100,157853
1631709055.139107,190645.333,31903,3,PI,1,100,157856
1631709055.177515,190683.667,31903,3,PI,1,100,157870
1631709055.215924,190722.000,31903,3,PI,1,100,157861
1631709055.256503,190762.500,31921,2,PI,1,100,157883
1631709055.297082,190803.000,31921,2,PI,1,100,157877
1631709055.341168,190847.000,31938,3,PI,1,100,157804
1631709055.385254,190891.000,31938,3,PI,1,100,157788
1631709055.429341,190935.000,31938,3,PI,1,100,157818
1631709055.470421,190976.000,31956,2,PI,1,100,157830
1631709055.511501,191017.000,31956,2,PI,1,100,157839
1631709055.551579,191057.000,31975,2,PI,1,100,157916
1631709055.591658,191097.000,31975,2,PI,1,100,158000
1631709055.635410,191140.667,31993,3,PI,1,100,157966
1631709055.679162,191184.333,31993,3,PI,1,100,157883
1631709055.722914,191228.000,31993,3,PI,1,100,157817
1631709055.761323,191266.333,32010,3,PI,1,100,157762
1631709055.799731,191304.667,32010,3,PI,1,100,157724
1631709055.838140,191343.000,32010,3,PI,1,100,157718
1631709055.887736,191392.500,32028,2,PI,1,100,157659
1631709055.937333,191442.000,32028,2,PI,1,100,157644
1631709055.977412,191482.000,32047,2,PI,1,100,157576
1631709056.017490,191522.000,32047,2,PI,1,100,157528
1631709056.055898,191560.333,32065,3,PI,1,100,157450
1631709056.094307,191598.667,32065,3,PI,1,100,157492
1631709056.132715,191637.000,32065,3,PI,1,100,157670
1631709056.173795,191678.000,32085,2,PI,1,100,157632
1631709056.214876,191719.000,32085,2,PI,1,100,157580
1631709056.257960,191762.000,32101,3,PI,1,100,157608
1631709056.301044,191805.000,32101,3,PI,1,100,157589
1631709056.344128,191848.000,32101,3,PI,1,100,157541
1631709056.384708,191888.500,32120,2,PI,1,100,157538
1631709056.425287,191929.000,32120,2,PI,1,100,157601
1631709056.463695,191967.333,32138,3,PI,1,100,157577
1631709056.502104,192005.667,32138,3,PI,1,100,157504
1631709056.540512,192044.000,32138,3,PI,1,100,157574
1631709056.581592,192085.000,32157,2,PI,1,100,157617
1631709056.622673,192126.000,32157,2,PI,1,100,157572
1631709056.663753,192167.000,32173,2,PI,1,100,157584
1631709056.704833,192208.000,32173,2,PI,1,100,157699
1631709056.748251,192251.333,32192,3,PI,1,100,157590
1631709056.791670,192294.667,32192,3,PI,1,100,157464
1631709056.835088,192338.000,32192,3,PI,1,100,157331
1631709056.873162,192376.000,32210,3,PI,1,100,157079
1631709056.911237,192414.000,32210,3,PI,1,100,157017
1631709056.949311,192452.000,32210,3,PI,1,100,156891
1631709056.987385,192490.000,32229,3,PI,1,100,156769
1631709057.025460,192528.000,32229,3,PI,1,100,156749
1631709057.063534,192566.000,32229,3,PI,1,100,156655
1631709057.104614,192607.000,32247,2,PI,1,100,156518
1631709057.145695,192648.000,32247,2,PI,1,100,156328
1631709057.186775,192689.000,32265,2,PI,1,100,156251
1631709057.227855,192730.000,32265,2,PI,1,100,156191
1631709057.270940,192773.000,32283,3,PI,1,100,155862
1631709057.314024,192816.000,32283,3,PI,1,100,155750
1631709057.357108,192859.000,32283,3,PI,1,100,155701
1631709057.398188,192900.000,32302,2,PI,1,100,155697
1631709057.439268,192941.000,32302,2,PI,1,100,155896
1631709057.477677,192979.333,32320,3,PI,1,100,156443
1631709057.516085,193017.667,32320,3,PI,1,100,156777
1631709057.554494,193056.000,32320,3,PI,1,100,156709
1631709057.598246,193099.667,32339,3,PI,1,100,157087
1631709057.641998,193143.333,32339,3,PI,1,100,157370
1631709057.685750,193187.000,32339,3,PI,1,100,157463
1631709057.726329,193227.500,32355,2,PI,1,100,157576
1631709057.766909,193268.000,32355,2,PI,1,100,157711
1631709057.805317,193306.333,32374,3,PI,1,100,157889
1631709057.843725,193344.667,32374,3,PI,1,100,157851
1631709057.882134,193383.000,32374,3,PI,1,100,157672
1631709057.923214,193424.000,32392,2,PI,1,100,157606
1631709057.964294,193465.000,32392,2,PI,1,100,157372
1631709058.007713,193508.333,32411,3,PI,1,100,156874
1631709058.051131,193551.667,32411,3,PI,1,100,156411
1631709058.094549,193595.000,32411,3,PI,1,100,156713
1631709058.135128,193635.500,32430,2,PI,1,100,157101
1631709058.175708,193676.000,32430,2,PI,1,100,157015
1631709058.214450,193714.667,32447,3,PI,1,100,156769
1631709058.253192,193753.333,32447,3,PI,1,100,156770
1631709058.291935,193792.000,32447,3,PI,1,100,157042
1631709058.332013,193832.000,32465,2,PI,1,100,157265
1631709058.372091,193872.000,32465,2,PI,1,100,157284
1631709058.415176,193915.000,32484,3,PI,1,100,157451
1631709058.458260,193958.000,32484,3,PI,1,100,157646
1631709058.501344,194001.000,32484,3,PI,1,100,157689
1631709058.540086,194039.667,32508,3,PI,1,100,157231
1631709058.578829,194078.333,32508,3,PI,1,100,156719
1631709058.617571,194117.000,32508,3,PI,1,100,156225
1631709058.661657,194161.000,32526,3,PI,1,100,155757
1631709058.705743,194205.000,32526,3,PI,1,100,155439
1631709058.749830,194249.000,32526,3,PI,1,100,155275
1631709058.789908,194289.000,32545,2,PI,1,100,155148
1631709058.829986,194329.000,32545,2,PI,1,100,154974
1631709058.868395,194367.333,32561,3,PI,1,100,154923
1631709058.906803,194405.667,32561,3,PI,1,100,154969
1631709058.945211,194444.000,32561,3,PI,1,100,155124
1631709058.985791,194484.500,32580,2,PI,1,100,155426
1631709059.026370,194525.000,32580,2,PI,1,100,155771
1631709059.070122,194568.667,32599,3,PI,1,100,155948
1631709059.113874,194612.333,32599,3,PI,1,100,156148
1631709059.157627,194656.000,32599,3,PI,1,100,156268
1631709059.198206,194696.500,32618,2,PI,1,100,156342
1631709059.238785,194737.000,32618,2,PI,1,100,156456
1631709059.277194,194775.333,32634,3,PI,1,100,156512
1631709059.315602,194813.667,32634,3,PI,1,100,156535
1631709059.354010,194852.000,32634,3,PI,1,100,156482
1631709059.394590,194892.500,32653,2,PI,1,100,156491
1631709059.435169,194933.000,32653,2,PI,1,100,156444
1631709059.478587,194976.333,32671,3,PI,1,100,156305
1631709059.522005,195019.667,32671,3,PI,1,100,156186
1631709059.565423,195063.000,32671,3,PI,1,100,156133
1631709059.606003,195103.500,32690,2,PI,1,100,156153
1631709059.646582,195144.000,32690,2,PI,1,100,156226
1631709059.687662,195185.000,32706,2,PI,1,100,156267
1631709059.728743,195226.000,32706,2,PI,1,100,156363
1631709059.772829,195270.000,32725,3,PI,1,100,156421
1631709059.816915,195314.000,32725,3,PI,1,100,156454
1631709059.861001,195358.000,32725,3,PI,1,100,156466
1631709059.901580,195398.500,32743,2,PI,1,100,156495
1631709059.942160,195439.000,32743,2,PI,1,100,156412
1631709059.980234,195477.000,32762,3,PI,1,100,156396
1631709060.018308,195515.000,32762,3,PI,1,100,156355
1631709060.056383,195553.000,32762,3,PI,1,100,156405
1631709060.096962,195593.500,32781,2,PI,1,100,156415
1631709060.137542,195634.000,32781,2,PI,1,100,156490
1631709060.181294,195677.667,32798,3,PI,1,100,156478
1631709060.225046,195721.333,32798,3,PI,1,100,156471
1631709060.268798,195765.000,32798,3,PI,1,100,156502
1631709060.310379,195806.500,32816,2,PI,1,100,156496
1631709060.351960,195848.000,32816,2,PI,1,100,156496
1631709060.392540,195888.500,32835,2,PI,1,100,156511
1631709060.433119,195929.000,32835,2,PI,1,100,156518
1631709060.476871,195972.667,32853,3,PI,1,100,156504
1631709060.520623,196016.333,32853,3,PI,1,100,156475
1631709060.564376,196060.000,32853,3,PI,1,100,156484
1631709060.602450,196098.000,32870,3,PI,1,100,156486
1631709060.640524,196136.000,32870,3,PI,1,100,156498
1631709060.678599,196174.000,32870,3,PI,1,100,156519
1631709060.719679,196215.000,32888,2,PI,1,100,156535
1631709060.760759,196256.000,32888,2,PI,1,100,156561
1631709060.801840,196297.000,32907,2,PI,1,100,156542
1631709060.842920,196338.000,32907,2,PI,1,100,156553
1631709060.886672,196381.667,32925,3,PI,1,100,156548
1631709060.930424,196425.333,32925,3,PI,1,100,156555
1631709060.974176,196469.000,32925,3,PI,1,100,156548
1631709061.014255,196509.000,32944,2,PI,1,100,156540
1631709061.054333,196549.000,32944,2,PI,1,100,156556
1631709061.092741,196587.333,32961,3,PI,1,100,156536
1631709061.131150,196625.667,32961,3,PI,1,100,156507
1631709061.169558,196664.000,32961,3,PI,1,100,156477
1631709061.217652,196712.000,32980,2,PI,1,100,156427
1631709061.265746,196760.000,32980,2,PI,1,100,156400
1631709061.304489,196798.667,32998,3,PI,1,100,156399
1631709061.343231,196837.333,32998,3,PI,1,100,156416
1631709061.381974,196876.000,32998,3,PI,1,100,156444
1631709061.423054,196917.000,33017,2,PI,1,100,156472
1631709061.464134,196958.000,33017,2,PI,1,100,156527
1631709061.504713,196998.500,33033,2,PI,1,100,156569
1631709061.545293,197039.000,33033,2,PI,1,100,156558
1631709061.588711,197082.333,33052,3,PI,1,100,156547
1631709061.632129,197125.667,33052,3,PI,1,100,156592
1631709061.675547,197169.000,33052,3,PI,1,100,156597
1631709061.713955,197207.333,33070,3,PI,1,100,156602
1631709061.752364,197245.667,33070,3,PI,1,100,156574
1631709061.790772,197284.000,33070,3,PI,1,100,156545
1631709061.831853,197325.000,33089,2,PI,1,100,156514
1631709061.872933,197366.000,33089,2,PI,1,100,156482
1631709061.914013,197407.000,33105,2,PI,1,100,156507
1631709061.955093,197448.000,33105,2,PI,1,100,156519
1631709061.998846,197491.667,33125,3,PI,1,100,156533
1631709062.042598,197535.333,33125,3,PI,1,100,156543
1631709062.086350,197579.000,33125,3,PI,1,100,156538
1631709062.127430,197620.000,33143,2,PI,1,100,156572
1631709062.168510,197661.000,33143,2,PI,1,100,156600
1631709062.212263,197704.667,33162,3,PI,1,100,156619
1631709062.256015,197748.333,33162,3,PI,1,100,156650
1631709062.299767,197792.000,33162,3,PI,1,100,156677
1631709062.340346,197832.500,33180,2,PI,1,100,156678
1631709062.380926,197873.000,33180,2,PI,1,100,156692
1631709062.419000,197911.000,33197,3,PI,1,100,156671
1631709062.457074,197949.000,33197,3,PI,1,100,156650
1631709062.495149,197987.000,33197,3,PI,1,100,156647
1631709062.536730,198028.500,33215,2,PI,1,100,156623
1631709062.578311,198070.000,33215,2,PI,1,100,156591
1631709062.621730,198113.333,33234,3,PI,1,100,156619
1631709062.665148,198156.667,33234,3,PI,1,100,156624
1631709062.708566,198200.000,33234,3,PI,1,100,156635
1631709062.749646,198241.000,33252,2,PI,1,100,156637
1631709062.790726,198282.000,33252,2,PI,1,100,156643
1631709062.831306,198322.500,33269,2,PI,1,100,156655
1631709062.871885,198363.000,33269,2,PI,1,100,156633
1631709062.915303,198406.333,33287,3,PI,1,100,156673
1631709062.958721,198449.667,33287,3,PI,1,100,156686
1631709063.002140,198493.000,33287,3,PI,1,100,156694
1631709063.043220,198534.000,33307,2,PI,1,100,156713
1631709063.084300,198575.000,33307,2,PI,1,100,156714
1631709063.122709,198613.333,33325,3,PI,1,100,156741
1631709063.161117,198651.667,33325,3,PI,1,100,156708
1631709063.199525,198690.000,33325,3,PI,1,100,156685
1631709063.240105,198730.500,33344,2,PI,1,100,156677
1631709063.280684,198771.000,33344,2,PI,1,100,156676
1631709063.324436,198814.667,33360,3,PI,1,100,156686
1631709063.368188,198858.333,33360,3,PI,1,100,156692
1631709063.411940,198902.000,33360,3,PI,1,100,156703
1631709063.453021,198943.000,33379,2,PI,1,100,156710
1631709063.494101,198984.000,33379,2,PI,1,100,156722
1631709063.535181,199025.000,33397,2,PI,1,100,156736
1631709063.576262,199066.000,33397,2,PI,1,100,156755
1631709063.617091,199106.750,33417,4,PI,1,100,156773
1631709063.657921,199147.500,33417,4,PI,1,100,156771
1631709063.698751,199188.250,33417,4,PI,1,100,156825
1631709063.739581,199229.000,33417,4,PI,1,100,156822
1631709063.782999,199272.333,33435,3,PI,1,100,156860
1631709063.826417,199315.667,33435,3,PI,1,100,156875
1631709063.869835,199359.000,33435,3,PI,1,100,156898
1631709063.910414,199399.500,33454,2,PI,1,100,156854
1631709063.950994,199440.000,33454,2,PI,1,100,156845
1631709063.989402,199478.333,33471,3,PI,1,100,156877
1631709064.027811,199516.667,33471,3,PI,1,100,156880
1631709064.066219,199555.000,33471,3,PI,1,100,156909
1631709064.107299,199596.000,33490,2,PI,1,100,156940
1631709064.148380,199637.000,33490,2,PI,1,100,156954
1631709064.192132,199680.667,33508,3,PI,1,100,156980
1631709064.235884,199724.333,33508,3,PI,1,100,157052
1631709064.279636,199768.000,33508,3,PI,1,100,157101
1631709064.319714,199808.000,33527,2,PI,1,100,157163
1631709064.359793,199848.000,33527,2,PI,1,100,157244
1631709064.403545,199891.667,33545,3,PI,1,100,157351
1631709064.447297,199935.333,33545,3,PI,1,100,157464
1631709064.491049,199979.000,33545,3,PI,1,100,157598
1631709064.532630,200020.500,33562,2,PI,1,100,157667
1631709064.574212,200062.000,33562,2,PI,1,100,157738
1631709064.612620,200100.333,33580,3,PI,1,100,157793
1631709064.651029,200138.667,33580,3,PI,1,100,157847
1631709064.689437,200177.000,33580,3,PI,1,100,157903
1631709064.729515,200217.000,33599,2,PI,1,100,157884
1631709064.769593,200257.000,33599,2,PI,1,100,157910
1631709064.808002,200295.333,33617,3,PI,1,100,157908
1631709064.846410,200333.667,33617,3,PI,1,100,157930
1631709064.884819,200372.000,33617,3,PI,1,100,157974
1631709064.922225,200409.333,33634,3,PI,1,100,157993
1631709064.959632,200446.667,33634,3,PI,1,100,158039
1631709064.997038,200484.000,33634,3,PI,1,100,158066
1631709065.038619,200525.500,33653,2,PI,1,100,158092
1631709065.080201,200567.000,33653,2,PI,1,100,158129
1631709065.118275,200605.000,33672,3,PI,1,100,158146
1631709065.156349,200643.000,33672,3,PI,1,100,158179
1631709065.194424,200681.000,33672,3,PI,1,100,158193
1631709065.236005,200722.500,33690,2,PI,1,100,158228
1631709065.277586,200764.000,33690,2,PI,1,100,158257
1631709065.315995,200802.333,33707,3,PI,1,100,158277
1631709065.354403,200840.667,33707,3,PI,1,100,158302
1631709065.392812,200879.000,33707,3,PI,1,100,158316
1631709065.433892,200920.000,33725,2,PI,1,100,158334
1631709065.474972,200961.000,33725,2,PI,1,100,158337
1631709065.512044,200998.000,33744,3,PI,1,100,158294
1631709065.549117,201035.000,33744,3,PI,1,100,158280
1631709065.586190,201072.000,33744,3,PI,1,100,158297
1631709065.624932,201110.667,33762,3,PI,1,100,158307
1631709065.663674,201149.333,33762,3,PI,1,100,158336
1631709065.702416,201188.000,33762,3,PI,1,100,158339
1631709065.742996,201228.500,33781,2,PI,1,100,158378
1631709065.783575,201269.000,33781,2,PI,1,100,158402
1631709065.821650,201307.000,33797,3,PI,1,100,158420
1631709065.859724,201345.000,33797,3,PI,1,100,158435
1631709065.897798,201383.000,33797,3,PI,1,100,158436
1631709065.938378,201423.500,33816,2,PI,1,100,158455
1631709065.978957,201464.000,33816,2,PI,1,100,158508
1631709066.017031,201502.000,33835,3,PI,1,100,158533
1631709066.055106,201540.000,33835,3,PI,1,100,158560
1631709066.093180,201578.000,33835,3,PI,1,100,158549
1631709066.131922,201616.667,33854,3,PI,1,100,158600
1631709066.170665,201655.333,33854,3,PI,1,100,158618
1631709066.209407,201694.000,33854,3,PI,1,100,158607
1631709066.250488,201735.000,33870,2,PI,1,100,158586
1631709066.291568,201776.000,33870,2,PI,1,100,158575
1631709066.329642,201814.000,33889,3,PI,1,100,158584
1631709066.367717,201852.000,33889,3,PI,1,100,158599
1631709066.405791,201890.000,33889,3,PI,1,100,158612
1631709066.446871,201931.000,33907,2,PI,1,100,158666
1631709066.487952,201972.000,33907,2,PI,1,100,158689
1631709066.525692,202009.667,33926,3,PI,1,100,158754
1631709066.563432,202047.333,33926,3,PI,1,100,158741
1631709066.601173,202085.000,33926,3,PI,1,100,158753
1631709066.641251,202125.000,33944,2,PI,1,100,158769
1631709066.681329,202165.000,33944,2,PI,1,100,158833
1631709066.724748,202208.333,33961,3,PI,1,100,159036
1631709066.768166,202251.667,33961,3,PI,1,100,159020
1631709066.811584,202295.000,33961,3,PI,1,100,159047
1631709066.844649,202328.000,33979,2,PI,1,100,159109
1631709066.877713,202361.000,33979,2,PI,1,100,159025
1631709066.921465,202404.667,33999,3,PI,1,100,159027
1631709066.965218,202448.333,33999,3,PI,1,100,159004
1631709067.008970,202492.000,33999,3,PI,1,100,158980
1631709067.042034,202525.000,34017,2,PI,1,100,158946
1631709067.075099,202558.000,34017,2,PI,1,100,158929
1631709067.118517,202601.333,34033,3,PI,1,100,158953
1631709067.161935,202644.667,34033,3,PI,1,100,158867
1631709067.205354,202688.000,34033,3,PI,1,100,158660
1631709067.243762,202726.333,34051,3,PI,1,100,158552
1631709067.282170,202764.667,34051,3,PI,1,100,158481
1631709067.320579,202803.000,34051,3,PI,1,100,158491
1631709067.361158,202843.500,34070,2,PI,1,100,158497
1631709067.401737,202884.000,34070,2,PI,1,100,158505
1631709067.440480,202922.667,34088,3,PI,1,100,158489
1631709067.479222,202961.333,34088,3,PI,1,100,158531
1631709067.517965,203000.000,34088,3,PI,1,100,158516
1631709067.555371,203037.333,34107,3,PI,1,100,158492
1631709067.592777,203074.667,34107,3,PI,1,100,158494
1631709067.630184,203112.000,34107,3,PI,1,100,158472
1631709067.671765,203153.500,34123,2,PI,1,100,158509
1631709067.713346,203195.000,34123,2,PI,1,100,158518
1631709067.751421,203233.000,34142,3,PI,1,100,158505
1631709067.789495,203271.000,34142,3,PI,1,100,158508
1631709067.827569,203309.000,34142,3,PI,1,100,158482
1631709067.868650,203350.000,34160,2,PI,1,100,158526
1631709067.909730,203391.000,34160,2,PI,1,100,158484
1631709067.948138,203429.333,34180,3,PI,1,100,158488
1631709067.986547,203467.667,34180,3,PI,1,100,158521
1631709068.024955,203506.000,34180,3,PI,1,100,158529
1631709068.063030,203544.000,34196,3,PI,1,100,158609
1631709068.101104,203582.000,34196,3,PI,1,100,158674
1631709068.139179,203620.000,34196,3,PI,1,100,158667
1631709068.179257,203660.000,34215,2,PI,1,100,158646
1631709068.219335,203700.000,34215,2,PI,1,100,158623
1631709068.257744,203738.333,34233,3,PI,1,100,158568
1631709068.296152,203776.667,34233,3,PI,1,100,158536
1631709068.334560,203815.000,34233,3,PI,1,100,158506
1631709068.375641,203856.000,34252,2,PI,1,100,158471
1631709068.416721,203897.000,34252,2,PI,1,100,158429
1631709068.455129,203935.333,34270,3,PI,1,100,158464
1631709068.493538,203973.667,34270,3,PI,1,100,158542
1631709068.531946,204012.000,34270,3,PI,1,100,158667
1631709068.570020,204050.000,34287,3,PI,1,100,158773
1631709068.608095,204088.000,34287,3,PI,1,100,158822
1631709068.646169,204126.000,34287,3,PI,1,100,158909
1631709068.686749,204166.500,34305,2,PI,1,100,159036
1631709068.727328,204207.000,34305,2,PI,1,100,159137
1631709068.768659,204248.250,34327,4,PI,1,100,159178
1631709068.809989,204289.500,34327,4,PI,1,100,159221
1631709068.851320,204330.750,34327,4,PI,1,100,159332
1631709068.892651,204372.000,34327,4,PI,1,100,159381
1631709068.931059,204410.333,34346,3,PI,1,100,159372
1631709068.969468,204448.667,34346,3,PI,1,100,159368
1631709069.007876,204487.000,34346,3,PI,1,100,159331
1631709069.048455,204527.500,34365,2,PI,1,100,159324
1631709069.089035,204568.000,34365,2,PI,1,100,159293
1631709069.127443,204606.333,34383,3,PI,1,100,159224
1631709069.165852,204644.667,34383,3,PI,1,100,159169
1631709069.204260,204683.000,34383,3,PI,1,100,159092
1631709069.241666,204720.333,34400,3,PI,1,100,159009
1631709069.279073,204757.667,34400,3,PI,1,100,158958
1631709069.316479,204795.000,34400,3,PI,1,100,158839
1631709069.357559,204836.000,34418,2,PI,1,100,158803
1631709069.398640,204877.000,34418,2,PI,1,100,158810
1631709069.436714,204915.000,34437,3,PI,1,100,158839
1631709069.474789,204953.000,34437,3,PI,1,100,158829
1631709069.512863,204991.000,34437,3,PI,1,100,158808
1631709069.554444,205032.500,34455,2,PI,1,100,158785
1631709069.596025,205074.000,34455,2,PI,1,100,158781
1631709069.634100,205112.000,34474,3,PI,1,100,158694
1631709069.672174,205150.000,34474,3,PI,1,100,158663
1631709069.710249,205188.000,34474,3,PI,1,100,158692
1631709069.748323,205226.000,34490,3,PI,1,100,158722
1631709069.786397,205264.000,34490,3,PI,1,100,158706
1631709069.824472,205302.000,34490,3,PI,1,100,158606
1631709069.865051,205342.500,34509,2,PI,1,100,158526
1631709069.905631,205383.000,34509,2,PI,1,100,158487
1631709069.943705,205421.000,34528,3,PI,1,100,158541
1631709069.981779,205459.000,34528,3,PI,1,100,158670
1631709070.019854,205497.000,34528,3,PI,1,100,158825
1631709070.060433,205537.500,34547,2,PI,1,100,158721
1631709070.101012,205578.000,34547,2,PI,1,100,158781
1631709070.139087,205616.000,34563,3,PI,1,100,158915
1631709070.177161,205654.000,34563,3,PI,1,100,159007
1631709070.215236,205692.000,34563,3,PI,1,100,159142
1631709070.256316,205733.000,34582,2,PI,1,100,159241
1631709070.297396,205774.000,34582,2,PI,1,100,159215
1631709070.335471,205812.000,34600,3,PI,1,100,159170
1631709070.373545,205850.000,34600,3,PI,1,100,159218
1631709070.411619,205888.000,34600,3,PI,1,100,159268
1631709070.452700,205929.000,34619,2,PI,1,100,159303
1631709070.493780,205970.000,34619,2,PI,1,100,159265
1631709070.532188,206008.333,34637,3,PI,1,100,159230
1631709070.570597,206046.667,34637,3,PI,1,100,159174
1631709070.609005,206085.000,34637,3,PI,1,100,159093
1631709070.650085,206126.000,34654,2,PI,1,100,158984
1631709070.691166,206167.000,34654,2,PI,1,100,158924
1631709070.729574,206205.333,34672,3,PI,1,100,158909
1631709070.767982,206243.667,34672,3,PI,1,100,158865
1631709070.806391,206282.000,34672,3,PI,1,100,158853
1631709070.849475,206325.000,34692,3,PI,1,100,158844
1631709070.892559,206368.000,34692,3,PI,1,100,158809
1631709070.935643,206411.000,34692,3,PI,1,100,158729
1631709070.968207,206443.500,34710,2,PI,1,100,158603
1631709071.000771,206476.000,34710,2,PI,1,100,158517
1631709071.043855,206519.000,34727,3,PI,1,100,158434
1631709071.086939,206562.000,34727,3,PI,1,100,158332
1631709071.130023,206605.000,34727,3,PI,1,100,158294
1631709071.163589,206638.500,34745,2,PI,1,100,158282
1631709071.197155,206672.000,34745,2,PI,1,100,158281
1631709071.240907,206715.667,34764,3,PI,1,100,158323
1631709071.284659,206759.333,34764,3,PI,1,100,158334
1631709071.328411,206803.000,34764,3,PI,1,100,158324
1631709071.366485,206841.000,34782,3,PI,1,100,158354
1631709071.404560,206879.000,34782,3,PI,1,100,158379
1631709071.442634,206917.000,34782,3,PI,1,100,158383
1631709071.483715,206958.000,34799,2,PI,1,100,158386
1631709071.524795,206999.000,34799,2,PI,1,100,158304
1631709071.562869,207037.000,34817,3,PI,1,100,158282
1631709071.600944,207075.000,34817,3,PI,1,100,158307
1631709071.639018,207113.000,34817,3,PI,1,100,158338
1631709071.679096,207153.000,34836,2,PI,1,100,158367
1631709071.719175,207193.000,34836,2,PI,1,100,158386
1631709071.758251,207232.000,34854,3,PI,1,100,158426
1631709071.797327,207271.000,34854,3,PI,1,100,158450
1631709071.836404,207310.000,34854,3,PI,1,100,158478
1631709071.873810,207347.333,34874,3,PI,1,100,158475
1631709071.911217,207384.667,34874,3,PI,1,100,158536
1631709071.948623,207422.000,34874,3,PI,1,100,158596
1631709071.990204,207463.500,34890,2,PI,1,100,158605
1631709072.031785,207505.000,34890,2,PI,1,100,158631
1631709072.069526,207542.667,34909,3,PI,1,100,158577
1631709072.107266,207580.333,34909,3,PI,1,100,158556
1631709072.145007,207618.000,34909,3,PI,1,100,158521
1631709072.185586,207658.500,34927,2,PI,1,100,158491
1631709072.226166,207699.000,34927,2,PI,1,100,158418
1631709072.264908,207737.667,34946,3,PI,1,100,158414
1631709072.303650,207776.333,34946,3,PI,1,100,158387
1631709072.342393,207815.000,34946,3,PI,1,100,158376
1631709072.380467,207853.000,34962,3,PI,1,100,158382
1631709072.418541,207891.000,34962,3,PI,1,100,158376
1631709072.456616,207929.000,34962,3,PI,1,100,158377
1631709072.497195,207969.500,34981,2,PI,1,100,158376
1631709072.537774,208010.000,34981,2,PI,1,100,158361
1631709072.575849,208048.000,34999,3,PI,1,100,158379
1631709072.613923,208086.000,34999,3,PI,1,100,158369
1631709072.651998,208124.000,34999,3,PI,1,100,158351
1631709072.692577,208164.500,35018,2,PI,1,100,158385
1631709072.733156,208205.000,35018,2,PI,1,100,158250
1631709072.771899,208243.667,35036,3,PI,1,100,158216
1631709072.810641,208282.333,35036,3,PI,1,100,158182
1631709072.849383,208321.000,35036,3,PI,1,100,158161
1631709072.889963,208361.500,35054,2,PI,1,100,158180
1631709072.930542,208402.000,35054,2,PI,1,100,158184
1631709072.968282,208439.667,35072,3,PI,1,100,158214
1631709073.006023,208477.333,35072,3,PI,1,100,158233
1631709073.043763,208515.000,35072,3,PI,1,100,158209
1631709073.084843,208556.000,35091,2,PI,1,100,158236
1631709073.125924,208597.000,35091,2,PI,1,100,158255
1631709073.163998,208635.000,35109,3,PI,1,100,158271
1631709073.202073,208673.000,35109,3,PI,1,100,158305
1631709073.240147,208711.000,35109,3,PI,1,100,158291
1631709073.280726,208751.500,35126,2,PI,1,100,158349
1631709073.321306,208792.000,35126,2,PI,1,100,158376
1631709073.359714,208830.333,35144,3,PI,1,100,158417
1631709073.398122,208868.667,35144,3,PI,1,100,158394
1631709073.436531,208907.000,35144,3,PI,1,100,158269
1631709073.479949,208950.333,35163,3,PI,1,100,158254
1631709073.523367,208993.667,35163,3,PI,1,100,158262
1631709073.566785,209037.000,35163,3,PI,1,100,158281
1631709073.599349,209069.500,35181,2,PI,1,100,158270
1631709073.631913,209102.000,35181,2,PI,1,100,158302
1631709073.674997,209145.000,35198,3,PI,1,100,158286
1631709073.718081,209188.000,35198,3,PI,1,100,158325
1631709073.761165,209231.000,35198,3,PI,1,100,158340
1631709073.794230,209264.000,35217,2,PI,1,100,158355
1631709073.827294,209297.000,35217,2,PI,1,100,158352
1631709073.866771,209336.400,35241,5,PI,1,100,158357
1631709073.906249,209375.800,35241,5,PI,1,100,158412
1631709073.945726,209415.200,35241,5,PI,1,100,158434
1631709073.985203,209454.600,35241,5,PI,1,100,158452
1631709074.024680,209494.000,35241,5,PI,1,100,158475
1631709074.065760,209535.000,35259,2,PI,1,100,158478
1631709074.106841,209576.000,35259,2,PI,1,100,158531
1631709074.144915,209614.000,35278,3,PI,1,100,158451
1631709074.182990,209652.000,35278,3,PI,1,100,158399
1631709074.221064,209690.000,35278,3,PI,1,100,158364
1631709074.261643,209730.500,35296,2,PI,1,100,158368
1631709074.302222,209771.000,35296,2,PI,1,100,158403
1631709074.340297,209809.000,35315,3,PI,1,100,158420
1631709074.378371,209847.000,35315,3,PI,1,100,158429
1631709074.416446,209885.000,35315,3,PI,1,100,158415
1631709074.458027,209926.500,35331,2,PI,1,100,158463
1631709074.499608,209968.000,35331,2,PI,1,100,158460
1631709074.537683,210006.000,35350,3,PI,1,100,158493
1631709074.575757,210044.000,35350,3,PI,1,100,158507
1631709074.613832,210082.000,35350,3,PI,1,100,158515
1631709074.654912,210123.000,35368,2,PI,1,100,158532
1631709074.695992,210164.000,35368,2,PI,1,100,158550
1631709074.733398,210201.333,35387,3,PI,1,100,158565
1631709074.770805,210238.667,35387,3,PI,1,100,158562
1631709074.808211,210276.000,35387,3,PI,1,100,158595
1631709074.851629,210319.333,35404,3,PI,1,100,158511
1631709074.895048,210362.667,35404,3,PI,1,100,158472
1631709074.938466,210406.000,35404,3,PI,1,100,158461
1631709074.971530,210439.000,35423,2,PI,1,100,158462
1631709075.004595,210472.000,35423,2,PI,1,100,158476
1631709075.048681,210516.000,35441,3,PI,1,100,158482
1631709075.092767,210560.000,35441,3,PI,1,100,158517
1631709075.136854,210604.000,35441,3,PI,1,100,158555
1631709075.169918,210637.000,35460,2,PI,1,100,158561
1631709075.202983,210670.000,35460,2,PI,1,100,158545
1631709075.246067,210713.000,35478,3,PI,1,100,158543
1631709075.289151,210756.000,35478,3,PI,1,100,158550
1631709075.332235,210799.000,35478,3,PI,1,100,158569
1631709075.369976,210836.667,35495,3,PI,1,100,158608
1631709075.407716,210874.333,35495,3,PI,1,100,158601
1631709075.445457,210912.000,35495,3,PI,1,100,158618
1631709075.487038,210953.500,35513,2,PI,1,100,158614
1631709075.528619,210995.000,35513,2,PI,1,100,158575
1631709075.566694,211033.000,35532,3,PI,1,100,158584
1631709075.604768,211071.000,35532,3,PI,1,100,158552
1631709075.642842,211109.000,35532,3,PI,1,100,158558
1631709075.683923,211150.000,35550,2,PI,1,100,158587
1631709075.725003,211191.000,35550,2,PI,1,100,158592
1631709075.763077,211229.000,35568,3,PI,1,100,158583
1631709075.801152,211267.000,35568,3,PI,1,100,158529
1631709075.839226,211305.000,35568,3,PI,1,100,158577
1631709075.877301,211343.000,35586,3,PI,1,100,158610
1631709075.915375,211381.000,35586,3,PI,1,100,158625
1631709075.953449,211419.000,35586,3,PI,1,100,158641
1631709075.994029,211459.500,35605,2,PI,1,100,158622
1631709076.034608,211500.000,35605,2,PI,1,100,158675
1631709076.073350,211538.667,35623,3,PI,1,100,158711
1631709076.112093,211577.333,35623,3,PI,1,100,158654
1631709076.150835,211616.000,35623,3,PI,1,100,158605
1631709076.190913,211656.000,35642,2,PI,1,100,158612
1631709076.230992,211696.000,35642,2,PI,1,100,158600
1631709076.269066,211734.000,35658,3,PI,1,100,158585
1631709076.307141,211772.000,35658,3,PI,1,100,158613
1631709076.345215,211810.000,35658,3,PI,1,100,158600
1631709076.382955,211847.667,35677,3,PI,1,100,158604
1631709076.420696,211885.333,35677,3,PI,1,100,158618
1631709076.458436,211923.000,35677,3,PI,1,100,158620
1631709076.499516,211964.000,35695,2,PI,1,100,158619
1631709076.540597,212005.000,35695,2,PI,1,100,158631
1631709076.579005,212043.333,35714,3,PI,1,100,158628
1631709076.617414,212081.667,35714,3,PI,1,100,158651
1631709076.655822,212120.000,35714,3,PI,1,100,158655
1631709076.696902,212161.000,35730,2,PI,1,100,158605
1631709076.737983,212202.000,35730,2,PI,1,100,158549
1631709076.776057,212240.000,35750,3,PI,1,100,158552
1631709076.814131,212278.000,35750,3,PI,1,100,158541
1631709076.852206,212316.000,35750,3,PI,1,100,158521
1631709076.889946,212353.667,35768,3,PI,1,100,158508
1631709076.927687,212391.333,35768,3,PI,1,100,158477
1631709076.965427,212429.000,35768,3,PI,1,100,158506
1631709077.006507,212470.000,35787,2,PI,1,100,158533
1631709077.047588,212511.000,35787,2,PI,1,100,158544
1631709077.085996,212549.333,35803,3,PI,1,100,158557
1631709077.124404,212587.667,35803,3,PI,1,100,158539
1631709077.162813,212626.000,35803,3,PI,1,100,158574
1631709077.203392,212666.500,35822,2,PI,1,100,158563
1631709077.243971,212707.000,35822,2,PI,1,100,158515
1631709077.282046,212745.000,35840,3,PI,1,100,158470
1631709077.320120,212783.000,35840,3,PI,1,100,158409
1631709077.358195,212821.000,35840,3,PI,1,100,158411
1631709077.398273,212861.000,35859,2,PI,1,100,158383
1631709077.438351,212901.000,35859,2,PI,1,100,158378
1631709077.476760,212939.333,35877,3,PI,1,100,158369
1631709077.515168,212977.667,35877,3,PI,1,100,158386
1631709077.553576,213016.000,35877,3,PI,1,100,158401
1631709077.594657,213057.000,35894,2,PI,1,100,158392
1631709077.635737,213098.000,35894,2,PI,1,100,158391
1631709077.674479,213136.667,35912,3,PI,1,100,158420
1631709077.713222,213175.333,35912,3,PI,1,100,158421
1631709077.751964,213214.000,35912,3,PI,1,100,158419
1631709077.792543,213254.500,35932,2,PI,1,100,158365
1631709077.833123,213295.000,35932,2,PI,1,100,158328
1631709077.876875,213338.667,35950,3,PI,1,100,158310
1631709077.920627,213382.333,35950,3,PI,1,100,158291
1631709077.964379,213426.000,35950,3,PI,1,100,158283
1631709078.001786,213463.333,35967,3,PI,1,100,158292
1631709078.039192,213500.667,35967,3,PI,1,100,158289
1631709078.076599,213538.000,35967,3,PI,1,100,158294
1631709078.118180,213579.500,35985,2,PI,1,100,158290
1631709078.159761,213621.000,35985,2,PI,1,100,158258
1631709078.197501,213658.667,36004,3,PI,1,100,158292
1631709078.235242,213696.333,36004,3,PI,1,100,158292
1631709078.272982,213734.000,36004,3,PI,1,100,158294
1631709078.314564,213775.500,36022,2,PI,1,100,158267
1631709078.356145,213817.000,36022,2,PI,1,100,158192
1631709078.394219,213855.000,36041,3,PI,1,100,158191
1631709078.432294,213893.000,36041,3,PI,1,100,158179
1631709078.470368,213931.000,36041,3,PI,1,100,158176
1631709078.508442,213969.000,36057,3,PI,1,100,158169
1631709078.546517,214007.000,36057,3,PI,1,100,158187
1631709078.584591,214045.000,36057,3,PI,1,100,158193
1631709078.625170,214085.500,36076,2,PI,1,100,158206
1631709078.665750,214126.000,36076,2,PI,1,100,158210
1631709078.704492,214164.667,36095,3,PI,1,100,158189
1631709078.743235,214203.333,36095,3,PI,1,100,158248
1631709078.781977,214242.000,36095,3,PI,1,100,158266
1631709078.822556,214282.500,36114,2,PI,1,100,158235
1631709078.863136,214323.000,36114,2,PI,1,100,158291
1631709078.901544,214361.333,36130,3,PI,1,100,158248
1631709078.939952,214399.667,36130,3,PI,1,100,158255
1631709078.978361,214438.000,36130,3,PI,1,100,158221
1631709079.018940,214478.500,36154,4,PI,1,100,158194
1631709079.059519,214519.000,36154,4,PI,1,100,158196
1631709079.100099,214559.500,36154,4,PI,1,100,158160
1631709079.140678,214600.000,36154,4,PI,1,100,158198
1631709079.173242,214632.500,36172,2,PI,1,100,158200
1631709079.205805,214665.000,36172,2,PI,1,100,158212
1631709079.249557,214708.667,36191,3,PI,1,100,158209
1631709079.293310,214752.333,36191,3,PI,1,100,158177
1631709079.337062,214796.000,36191,3,PI,1,100,158240
1631709079.370126,214829.000,36209,2,PI,1,100,158240
1631709079.403191,214862.000,36209,2,PI,1,100,158276
1631709079.446943,214905.667,36228,3,PI,1,100,158283
1631709079.490695,214949.333,36228,3,PI,1,100,158247
1631709079.534447,214993.000,36228,3,PI,1,100,158228
1631709079.572522,215031.000,36244,3,PI,1,100,158211
1631709079.610596,215069.000,36244,3,PI,1,100,158203
1631709079.648671,215107.000,36244,3,PI,1,100,158184
1631709079.689751,215148.000,36263,2,PI,1,100,158205
1631709079.730831,215189.000,36263,2,PI,1,100,158248
1631709079.768906,215227.000,36282,3,PI,1,100,158253
1631709079.806980,215265.000,36282,3,PI,1,100,158253
1631709079.845054,215303.000,36282,3,PI,1,100,158235
1631709079.886135,215344.000,36301,2,PI,1,100,158263
1631709079.927215,215385.000,36301,2,PI,1,100,158305
1631709079.965289,215423.000,36319,3,PI,1,100,158321
1631709080.003364,215461.000,36319,3,PI,1,100,158316
1631709080.041438,215499.000,36319,3,PI,1,100,158307
1631709080.079513,215537.000,36336,3,PI,1,100,158332
1631709080.117587,215575.000,36336,3,PI,1,100,158287
1631709080.155662,215613.000,36336,3,PI,1,100,158252
1631709080.196742,215654.000,36354,2,PI,1,100,158208
1631709080.237822,215695.000,36354,2,PI,1,100,158207
1631709080.275563,215732.667,36373,3,PI,1,100,158240
1631709080.313303,215770.333,36373,3,PI,1,100,158246
1631709080.351043,215808.000,36373,3,PI,1,100,158268
1631709080.392625,215849.500,36391,2,PI,1,100,158253
1631709080.434206,215891.000,36391,2,PI,1,100,158270
1631709080.472614,215929.333,36408,3,PI,1,100,158309
1631709080.511023,215967.667,36408,3,PI,1,100,158333
1631709080.549431,216006.000,36408,3,PI,1,100,158351
1631709080.590511,216047.000,36426,2,PI,1,100,158348
1631709080.631592,216088.000,36426,2,PI,1,100,158391
1631709080.669332,216125.667,36446,3,PI,1,100,158399
1631709080.707072,216163.333,36446,3,PI,1,100,158428
1631709080.744813,216201.000,36446,3,PI,1,100,158429
1631709080.783221,216239.333,36464,3,PI,1,100,158336
1631709080.821630,216277.667,36464,3,PI,1,100,158349
1631709080.860038,216316.000,36464,3,PI,1,100,158326
1631709080.900116,216356.000,36481,2,PI,1,100,158346
1631709080.940195,216396.000,36481,2,PI,1,100,158363
1631709080.979271,216435.000,36499,3,PI,1,100,158358
1631709081.018347,216474.000,36499,3,PI,1,100,158385
1631709081.057424,216513.000,36499,3,PI,1,100,158397
1631709081.098003,216553.500,36518,2,PI,1,100,158419
1631709081.138582,216594.000,36518,2,PI,1,100,158442
1631709081.176657,216632.000,36536,3,PI,1,100,158466
1631709081.214731,216670.000,36536,3,PI,1,100,158478
1631709081.252805,216708.000,36536,3,PI,1,100,158490
1631709081.291214,216746.333,36555,3,PI,1,100,158508
1631709081.329622,216784.667,36555,3,PI,1,100,158548
1631709081.368031,216823.000,36555,3,PI,1,100,158574
1631709081.408610,216863.500,36571,2,PI,1,100,158559
1631709081.449189,216904.000,36571,2,PI,1,100,158550
1631709081.486930,216941.667,36590,3,PI,1,100,158523
1631709081.524670,216979.333,36590,3,PI,1,100,158530
1631709081.562411,217017.000,36590,3,PI,1,100,158530
1631709081.603992,217058.500,36608,2,PI,1,100,158505
1631709081.645573,217100.000,36608,2,PI,1,100,158545
1631709081.682980,217137.333,36628,3,PI,1,100,158566
1631709081.720386,217174.667,36628,3,PI,1,100,158572
1631709081.757792,217212.000,36628,3,PI,1,100,158565
1631709081.799374,217253.500,36644,2,PI,1,100,158585
1631709081.840955,217295.000,36644,2,PI,1,100,158621
1631709081.879029,217333.000,36663,3,PI,1,100,158639
1631709081.917104,217371.000,36663,3,PI,1,100,158649
1631709081.955178,217409.000,36663,3,PI,1,100,158646
1631709081.995758,217449.500,36681,2,PI,1,100,158656
1631709082.036337,217490.000,36681,2,PI,1,100,158694
1631709082.075079,217528.667,36700,3,PI,1,100,158704
1631709082.113822,217567.333,36700,3,PI,1,100,158711
1631709082.152564,217606.000,36700,3,PI,1,100,158685
1631709082.193644,217647.000,36718,2,PI,1,100,158644
1631709082.234725,217688.000,36718,2,PI,1,100,158623
1631709082.272465,217725.667,36735,3,PI,1,100,158612
1631709082.310205,217763.333,36735,3,PI,1,100,158596
1631709082.347946,217801.000,36735,3,PI,1,100,158575
1631709082.391364,217844.333,36753,3,PI,1,100,158584
1631709082.434782,217887.667,36753,3,PI,1,100,158591
1631709082.478200,217931.000,36753,3,PI,1,100,158567
1631709082.510764,217963.500,36772,2,PI,1,100,158566
1631709082.543328,217996.000,36772,2,PI,1,100,158552
1631709082.587080,218039.667,36790,3,PI,1,100,158595
1631709082.630832,218083.333,36790,3,PI,1,100,158508
1631709082.674584,218127.000,36790,3,PI,1,100,158358
1631709082.712324,218164.667,36808,3,PI,1,100,157891
1631709082.750065,218202.333,36808,3,PI,1,100,157198
1631709082.787805,218240.000,36808,3,PI,1,100,156746
1631709082.828886,218281.000,36826,2,PI,1,100,156213
1631709082.869966,218322.000,36826,2,PI,1,100,155924
1631709082.908040,218360.000,36845,3,PI,1,100,156048
1631709082.946115,218398.000,36845,3,PI,1,100,156222
1631709082.984189,218436.000,36845,3,PI,1,100,156633
1631709083.025269,218477.000,36863,2,PI,1,100,157005
1631709083.066350,218518.000,36863,2,PI,1,100,157466
1631709083.104090,218555.667,36882,3,PI,1,100,157772
1631709083.141830,218593.333,36882,3,PI,1,100,158141
1631709083.179571,218631.000,36882,3,PI,1,100,158393
1631709083.217645,218669.000,36898,3,PI,1,100,158542
1631709083.255720,218707.000,36898,3,PI,1,100,158685
1631709083.293794,218745.000,36898,3,PI,1,100,158818
1631709083.334874,218786.000,36917,2,PI,1,100,158960
1631709083.375955,218827.000,36917,2,PI,1,100,159089
1631709083.413695,218864.667,36935,3,PI,1,100,159163
1631709083.451436,218902.333,36935,3,PI,1,100,159217
1631709083.489176,218940.000,36935,3,PI,1,100,159208
1631709083.529755,218980.500,36954,2,PI,1,100,159198
1631709083.570334,219021.000,36954,2,PI,1,100,159120
1631709083.608743,219059.333,36971,3,PI,1,100,159068
1631709083.647151,219097.667,36971,3,PI,1,100,158914
1631709083.685560,219136.000,36971,3,PI,1,100,158740
1631709083.723634,219174.000,36990,3,PI,1,100,158651
1631709083.761708,219212.000,36990,3,PI,1,100,158580
1631709083.799783,219250.000,36990,3,PI,1,100,158579
1631709083.840863,219291.000,37008,2,PI,1,100,158571
1631709083.881943,219332.000,37008,2,PI,1,100,158565
1631709083.920018,219370.000,37027,3,PI,1,100,158597
1631709083.958092,219408.000,37027,3,PI,1,100,158597
1631709083.996167,219446.000,37027,3,PI,1,100,158601
1631709084.036245,219486.000,37044,2,PI,1,100,158619
1631709084.076323,219526.000,37044,2,PI,1,100,158667
1631709084.117404,219567.000,37066,4,PI,1,100,158694
1631709084.158484,219608.000,37066,4,PI,1,100,158692
1631709084.199564,219649.000,37066,4,PI,1,100,158691
1631709084.240644,219690.000,37066,4,PI,1,100,158703
1631709084.279053,219728.333,37084,3,PI,1,100,158706
1631709084.317461,219766.667,37084,3,PI,1,100,158718
1631709084.355870,219805.000,37084,3,PI,1,100,158735
1631709084.396449,219845.500,37103,2,PI,1,100,158746
1631709084.437028,219886.000,37103,2,PI,1,100,158759
1631709084.475437,219924.333,37121,3,PI,1,100,158740
1631709084.513845,219962.667,37121,3,PI,1,100,158764
1631709084.552253,220001.000,37121,3,PI,1,100,158782
1631709084.592833,220041.500,37141,2,PI,1,100,158809
1631709084.633412,220082.000,37141,2,PI,1,100,158837
1631709084.671152,220119.667,37159,3,PI,1,100,158841
1631709084.708893,220157.333,37159,3,PI,1,100,158874
1631709084.746633,220195.000,37159,3,PI,1,100,158923
1631709084.785376,220233.667,37176,3,PI,1,100,158953
1631709084.824118,220272.333,37176,3,PI,1,100,158960
1631709084.862860,220311.000,37176,3,PI,1,100,158922
1631709084.903941,220352.000,37194,2,PI,1,100,158906
1631709084.945021,220393.000,37194,2,PI,1,100,158921
1631709084.983095,220431.000,37213,3,PI,1,100,158929
1631709085.021170,220469.000,37213,3,PI,1,100,158887
1631709085.059244,220507.000,37213,3,PI,1,100,158859
1631709085.099323,220547.000,37231,2,PI,1,100,158880
1631709085.139401,220587.000,37231,2,PI,1,100,158901
1631709085.177141,220624.667,37248,3,PI,1,100,158868
1631709085.214882,220662.333,37248,3,PI,1,100,158812
1631709085.252622,220700.000,37248,3,PI,1,100,158813
1631709085.291698,220739.000,37266,3,PI,1,100,158912
1631709085.330775,220778.000,37266,3,PI,1,100,158898
1631709085.369851,220817.000,37266,3,PI,1,100,158792
1631709085.409930,220857.000,37285,2,PI,1,100,158661
1631709085.450008,220897.000,37285,2,PI,1,100,158712
1631709085.488416,220935.333,37303,3,PI,1,100,158787
1631709085.526825,220973.667,37303,3,PI,1,100,158753
1631709085.565233,221012.000,37303,3,PI,1,100,158703
1631709085.606313,221053.000,37323,2,PI,1,100,158591
1631709085.647394,221094.000,37323,2,PI,1,100,158552
1631709085.685468,221132.000,37339,3,PI,1,100,158615
1631709085.723542,221170.000,37339,3,PI,1,100,158666
1631709085.761617,221208.000,37339,3,PI,1,100,158702
1631709085.802196,221248.500,37358,2,PI,1,100,158681
1631709085.842775,221289.000,37358,2,PI,1,100,158604
1631709085.881518,221327.667,37376,3,PI,1,100,158626
1631709085.920260,221366.333,37376,3,PI,1,100,158656
1631709085.959002,221405.000,37376,3,PI,1,100,158733
1631709085.999081,221445.000,37395,2,PI,1,100,158735
1631709086.039159,221485.000,37395,2,PI,1,100,158637
1631709086.077234,221523.000,37411,3,PI,1,100,158516
1631709086.115308,221561.000,37411,3,PI,1,100,158345
1631709086.153383,221599.000,37411,3,PI,1,100,158295
1631709086.197134,221642.667,37430,3,PI,1,100,158293
1631709086.240887,221686.333,37430,3,PI,1,100,158343
1631709086.284639,221730.000,37430,3,PI,1,100,158405
1631709086.317203,221762.500,37448,2,PI,1,100,158356
1631709086.349766,221795.000,37448,2,PI,1,100,158305
1631709086.393518,221838.667,37467,3,PI,1,100,158191
1631709086.437271,221882.333,37467,3,PI,1,100,157984
1631709086.481023,221926.000,37467,3,PI,1,100,157731
1631709086.514087,221959.000,37485,2,PI,1,100,157558
1631709086.547152,221992.000,37485,2,PI,1,100,157524
1631709086.590904,222035.667,37503,3,PI,1,100,157545
1631709086.634656,222079.333,37503,3,PI,1,100,157613
1631709086.678408,222123.000,37503,3,PI,1,100,157632
1631709086.715815,222160.333,37521,3,PI,1,100,157600
1631709086.753221,222197.667,37521,3,PI,1,100,157535
1631709086.790628,222235.000,37521,3,PI,1,100,157549
1631709086.832209,222276.500,37540,2,PI,1,100,157577
1631709086.873790,222318.000,37540,2,PI,1,100,157539
1631709086.912199,222356.333,37558,3,PI,1,100,157423
1631709086.950607,222394.667,37558,3,PI,1,100,157334
1631709086.989015,222433.000,37558,3,PI,1,100,157333
1631709087.029094,222473.000,37575,2,PI,1,100,157410
1631709087.069172,222513.000,37575,2,PI,1,100,157426
1631709087.107580,222551.333,37593,3,PI,1,100,157460
1631709087.145989,222589.667,37593,3,PI,1,100,157491
1631709087.184397,222628.000,37593,3,PI,1,100,157499
1631709087.222138,222665.667,37612,3,PI,1,100,157545
1631709087.259878,222703.333,37612,3,PI,1,100,157546
1631709087.297619,222741.000,37612,3,PI,1,100,157528
1631709087.338699,222782.000,37630,2,PI,1,100,157567
1631709087.379779,222823.000,37630,2,PI,1,100,157580
1631709087.418187,222861.333,37647,3,PI,1,100,157604
1631709087.456596,222899.667,37647,3,PI,1,100,157658
1631709087.495004,222938.000,37647,3,PI,1,100,157682
1631709087.536586,222979.500,37666,2,PI,1,100,157666
1631709087.578167,223021.000,37666,2,PI,1,100,157636
1631709087.616241,223059.000,37685,3,PI,1,100,157587
1631709087.654315,223097.000,37685,3,PI,1,100,157556
1631709087.692390,223135.000,37685,3,PI,1,100,157542
1631709087.730130,223172.667,37703,3,PI,1,100,157522
1631709087.767871,223210.333,37703,3,PI,1,100,157479
1631709087.805611,223248.000,37703,3,PI,1,100,157439
1631709087.845690,223288.000,37722,2,PI,1,100,157456
1631709087.885768,223328.000,37722,2,PI,1,100,157455
1631709087.924176,223366.333,37738,3,PI,1,100,157484
1631709087.962585,223404.667,37738,3,PI,1,100,157447
1631709088.000993,223443.000,37738,3,PI,1,100,157439
1631709088.041572,223483.500,37757,2,PI,1,100,157445
1631709088.082152,223524.000,37757,2,PI,1,100,157510
1631709088.120560,223562.333,37775,3,PI,1,100,157480
1631709088.158968,223600.667,37775,3,PI,1,100,157501
1631709088.197377,223639.000,37775,3,PI,1,100,157621
1631709088.236119,223677.667,37794,3,PI,1,100,157565
1631709088.274862,223716.333,37794,3,PI,1,100,157479
1631709088.313604,223755.000,37794,3,PI,1,100,157448
1631709088.354183,223795.500,37810,2,PI,1,100,157486
1631709088.394763,223836.000,37810,2,PI,1,100,157504
1631709088.433171,223874.333,37829,3,PI,1,100,157303
1631709088.471579,223912.667,37829,3,PI,1,100,157086
1631709088.509988,223951.000,37829,3,PI,1,100,156998
1631709088.551068,223992.000,37848,2,PI,1,100,157013
1631709088.592148,224033.000,37848,2,PI,1,100,156980
1631709088.630223,224071.000,37867,3,PI,1,100,156940
1631709088.668297,224109.000,37867,3,PI,1,100,156829
1631709088.706372,224147.000,37867,3,PI,1,100,156768
1631709088.747452,224188.000,37885,2,PI,1,100,156736
1631709088.788532,224229.000,37885,2,PI,1,100,156650
1631709088.826272,224266.667,37902,3,PI,1,100,156839
1631709088.864013,224304.333,37902,3,PI,1,100,157162
1631709088.901753,224342.000,37902,3,PI,1,100,157261
1631709088.942333,224382.500,37920,2,PI,1,100,157310
1631709088.982912,224423.000,37920,2,PI,1,100,157318
1631709089.021320,224461.333,37939,3,PI,1,100,157475
1631709089.059729,224499.667,37939,3,PI,1,100,157635
1631709089.098137,224538.000,37939,3,PI,1,100,157524
1631709089.139217,224579.000,37957,2,PI,1,100,157012
1631709089.180298,224620.000,37957,2,PI,1,100,156373
1631709089.219574,224659.200,37977,5,PI,1,100,156040
1631709089.258851,224698.400,37977,5,PI,1,100,155816
1631709089.298128,224737.600,37977,5,PI,1,100,155904
1631709089.337405,224776.800,37977,5,PI,1,100,156114
1631709089.376682,224816.000,37977,5,PI,1,100,156208
1631709089.417261,224856.500,37995,2,PI,1,100,156319
1631709089.457840,224897.000,37995,2,PI,1,100,156234
1631709089.495914,224935.000,38013,3,PI,1,100,156154
1631709089.533989,224973.000,38013,3,PI,1,100,156180
1631709089.572063,225011.000,38013,3,PI,1,100,156206
1631709089.613144,225052.000,38031,2,PI,1,100,155916
1631709089.654224,225093.000,38031,2,PI,1,100,155727
1631709089.692298,225131.000,38050,3,PI,1,100,155853
1631709089.730373,225169.000,38050,3,PI,1,100,156231
1631709089.768447,225207.000,38050,3,PI,1,100,156433
1631709089.806855,225245.333,38068,3,PI,1,100,156502
1631709089.845264,225283.667,38068,3,PI,1,100,156322
1631709089.883672,225322.000,38068,3,PI,1,100,156024
1631709089.924252,225362.500,38085,2,PI,1,100,155857
1631709089.964831,225403.000,38085,2,PI,1,100,155595
1631709090.003239,225441.333,38102,3,PI,1,100,155646
1631709090.041648,225479.667,38102,3,PI,1,100,155875
1631709090.080056,225518.000,38102,3,PI,1,100,155947
1631709090.120134,225558.000,38120,2,PI,1,100,155898
1631709090.160213,225598.000,38120,2,PI,1,100,155995
1631709090.198955,225636.667,38138,3,PI,1,100,155998
1631709090.237697,225675.333,38138,3,PI,1,100,155974
1631709090.276440,225714.000,38138,3,PI,1,100,155937
1631709090.317019,225754.500,38157,2,PI,1,100,156011
1631709090.357599,225795.000,38157,2,PI,1,100,156165
1631709090.401017,225838.333,38173,3,PI,1,100,156416
1631709090.444435,225881.667,38173,3,PI,1,100,156548
1631709090.487853,225925.000,38173,3,PI,1,100,156443
1631709090.526261,225963.333,38193,3,PI,1,100,156355
1631709090.564670,226001.667,38193,3,PI,1,100,156434
1631709090.603078,226040.000,38193,3,PI,1,100,156525
1631709090.643657,226080.500,38211,2,PI,1,100,156441
1631709090.684237,226121.000,38211,2,PI,1,100,156323
1631709090.722311,226159.000,38230,3,PI,1,100,156276
1631709090.760386,226197.000,38230,3,PI,1,100,156320
1631709090.798460,226235.000,38230,3,PI,1,100,156397
1631709090.839540,226276.000,38248,2,PI,1,100,156532
1631709090.880620,226317.000,38248,2,PI,1,100,156755
1631709090.919029,226355.333,38265,3,PI,1,100,157022
1631709090.957437,226393.667,38265,3,PI,1,100,157203
1631709090.995846,226432.000,38265,3,PI,1,100,157227
1631709091.033920,226470.000,38283,3,PI,1,100,157261
1631709091.071995,226508.000,38283,3,PI,1,100,157327
1631709091.110069,226546.000,38283,3,PI,1,100,157295
1631709091.151650,226587.500,38302,2,PI,1,100,157085
1631709091.193231,226629.000,38302,2,PI,1,100,157115
1631709091.230972,226666.667,38320,3,PI,1,100,157362
1631709091.268712,226704.333,38320,3,PI,1,100,157577
1631709091.306453,226742.000,38320,3,PI,1,100,157644
1631709091.347032,226782.500,38337,2,PI,1,100,157581
1631709091.387611,226823.000,38337,2,PI,1,100,157608
1631709091.426354,226861.667,38355,3,PI,1,100,157632
1631709091.465096,226900.333,38355,3,PI,1,100,157625
1631709091.503839,226939.000,38355,3,PI,1,100,157502
1631709091.541579,226976.667,38375,3,PI,1,100,157387
1631709091.579319,227014.333,38375,3,PI,1,100,157198
1631709091.617060,227052.000,38375,3,PI,1,100,156977
1631709091.658140,227093.000,38393,2,PI,1,100,157021
1631709091.699220,227134.000,38393,2,PI,1,100,157208
1631709091.737295,227172.000,38410,3,PI,1,100,157352
1631709091.775369,227210.000,38410,3,PI,1,100,157367
1631709091.813443,227248.000,38410,3,PI,1,100,157459
1631709091.855025,227289.500,38428,2,PI,1,100,157562
1631709091.896606,227331.000,38428,2,PI,1,100,157602
1631709091.935014,227369.333,38447,3,PI,1,100,157641
1631709091.973423,227407.667,38447,3,PI,1,100,157671
1631709092.011831,227446.000,38447,3,PI,1,100,157635
1631709092.052410,227486.500,38465,2,PI,1,100,157537
1631709092.092990,227527.000,38465,2,PI,1,100,157414
1631709092.131064,227565.000,38484,3,PI,1,100,157387
1631709092.169139,227603.000,38484,3,PI,1,100,157325
1631709092.207213,227641.000,38484,3,PI,1,100,157305
1631709092.245287,227679.000,38500,3,PI,1,100,157263
1631709092.283362,227717.000,38500,3,PI,1,100,157256
1631709092.321436,227755.000,38500,3,PI,1,100,157273
1631709092.362015,227795.500,38519,2,PI,1,100,157246
1631709092.402595,227836.000,38519,2,PI,1,100,157326
1631709092.441003,227874.333,38538,3,PI,1,100,157415
1631709092.479412,227912.667,38538,3,PI,1,100,157440
1631709092.517820,227951.000,38538,3,PI,1,100,157440
1631709092.558900,227992.000,38557,2,PI,1,100,157405
1631709092.599981,228033.000,38557,2,PI,1,100,157412
1631709092.638055,228071.000,38573,3,PI,1,100,157442
1631709092.676129,228109.000,38573,3,PI,1,100,157491
1631709092.714204,228147.000,38573,3,PI,1,100,157588
